,EMG 1,EMG 2,EMG 3,EMG 4,EMG 5,EMG 6,EMG 7,EMG 8,Eat,Max,Min,Mean,StD,RMS,FFT
0,-2,-2,-3,-1,1,-1,-1,5,False,5,-3,-0.5,2.5071326821120348,2.3979157616563596,-4.0
1,2,0,1,0,-1,0,0,3,False,3,-1,0.625,1.3024701806293193,1.3693063937629153,5.0
2,1,0,1,0,-1,-1,0,3,False,3,-1,0.375,1.3024701806293193,1.2747548783981961,3.0
3,-1,0,-1,-1,1,0,0,2,False,2,-1,0.0,1.0690449676496976,1.0,0.0
4,0,0,-1,0,-1,0,-1,-5,False,0,-5,-1.0,1.6903085094570331,1.8708286933869707,-8.0
5,-1,-2,-1,1,-2,0,0,-6,False,1,-6,-1.375,2.1339098923270936,2.4238399287081647,-11.0
6,-4,-3,-1,-2,-1,-2,-3,-6,False,-1,-6,-2.75,1.6690459207925603,3.1622776601683795,-22.0
7,-2,2,-2,-1,-1,-1,-1,1,False,2,-2,-0.625,1.4078859531733587,1.4577379737113252,-5.0
8,0,0,-1,-1,0,-1,0,4,False,4,-1,0.125,1.6420805617960925,1.541103500742244,1.0
9,1,-1,-1,-2,-1,-1,0,-2,False,1,-2,-0.875,0.9910312089651149,1.2747548783981961,-7.0
10,0,1,0,0,0,0,-1,0,False,1,-1,0.0,0.5345224838248488,0.5,0.0
11,1,-2,-1,0,0,0,-1,2,False,2,-2,-0.125,1.2464234547582247,1.1726039399558574,-1.0
12,2,-3,-1,-1,-1,1,1,-1,False,2,-3,-0.375,1.5979898086569353,1.541103500742244,-3.0
13,-1,0,-1,0,-1,-1,-3,-4,False,0,-4,-1.375,1.4078859531733587,1.9039432764659772,-11.0
14,-1,0,-1,-1,1,0,-1,-6,False,1,-6,-1.125,2.100170061141308,2.2638462845343543,-9.0
15,2,1,2,-1,-1,0,1,3,False,3,-1,0.875,1.4577379737113252,1.620185174601965,7.0
16,-3,-2,-1,-1,-1,-2,-2,-2,False,-1,-3,-1.75,0.7071067811865476,1.8708286933869707,-14.0
17,0,-1,-1,-1,-1,-2,-1,1,False,1,-2,-0.75,0.8864052604279183,1.118033988749895,-6.0
18,-4,2,-1,-2,-2,0,-1,1,False,2,-4,-0.875,1.8850918886280925,1.9685019685029528,-7.0
19,-1,0,-2,-1,-3,-2,-1,0,False,0,-3,-1.25,1.0350983390135313,1.5811388300841898,-10.0
20,1,-2,-3,-3,0,-2,-4,-6,False,1,-6,-2.375,2.1998376563477846,3.142451272494134,-19.0
21,-1,-1,-1,-1,-1,-1,0,-2,False,0,-2,-1.0,0.5345224838248488,1.118033988749895,-8.0
22,-1,-1,-1,0,-2,0,-2,2,False,2,-2,-0.625,1.3024701806293193,1.3693063937629153,-5.0
23,-5,-2,-3,-1,0,0,-2,-3,False,0,-5,-2.0,1.6903085094570331,2.5495097567963922,-16.0
24,1,-1,-1,-1,-1,-2,2,0,False,2,-2,-0.375,1.3024701806293193,1.2747548783981961,-3.0
25,0,-1,-1,0,-1,0,-1,-1,False,0,-1,-0.625,0.5175491695067657,0.7905694150420949,-5.0
26,1,-1,0,-1,1,0,1,0,False,1,-1,0.125,0.8345229603962802,0.7905694150420949,1.0
27,-2,-1,0,1,1,0,-1,2,False,2,-2,0.0,1.3093073414159542,1.224744871391589,0.0
28,3,0,2,0,1,-2,1,3,False,3,-2,1.0,1.6903085094570331,1.8708286933869707,8.0
29,1,-1,-1,-1,-2,-1,-1,1,False,1,-2,-0.625,1.0606601717798212,1.1726039399558574,-5.0
30,-2,0,-1,0,-3,0,-1,1,False,1,-3,-0.75,1.2817398889233114,1.4142135623730951,-6.0
31,0,-1,0,0,-1,-1,0,3,False,3,-1,0.0,1.3093073414159542,1.224744871391589,0.0
32,-1,-2,-1,-2,-2,0,0,-3,False,0,-3,-1.375,1.0606601717798212,1.695582495781317,-11.0
33,-1,0,-2,-1,-1,1,-1,-1,False,1,-2,-0.75,0.8864052604279183,1.118033988749895,-6.0
34,-2,-1,-1,-1,-1,0,-2,0,False,0,-2,-1.0,0.7559289460184544,1.224744871391589,-8.0
35,0,-2,-1,-3,1,-1,-1,-3,False,1,-3,-1.25,1.3887301496588271,1.8027756377319946,-10.0
36,-2,-2,-2,-1,0,0,-1,1,False,1,-2,-0.875,1.1259916264596033,1.3693063937629153,-7.0
37,-2,-1,-1,0,0,-1,-1,0,False,0,-2,-0.75,0.7071067811865476,1.0,-6.0
38,-2,-1,-3,0,-1,0,-2,-2,False,0,-3,-1.375,1.0606601717798212,1.695582495781317,-11.0
39,-1,-1,0,-1,-1,-2,0,-1,False,0,-2,-0.875,0.6408699444616557,1.0606601717798212,-7.0
40,-1,-1,0,0,-1,-1,0,1,False,1,-1,-0.375,0.7440238091428449,0.7905694150420949,-3.0
41,-2,-2,-1,-1,-2,-2,-2,-6,False,-1,-6,-2.25,1.5811388300841898,2.692582403567252,-18.0
42,3,1,-2,-1,0,-1,0,1,False,3,-2,0.125,1.5526475085202969,1.4577379737113252,1.0
43,-2,-3,-2,-1,-2,-1,-1,0,False,0,-3,-1.5,0.9258200997725514,1.7320508075688772,-12.0
44,1,-3,0,0,-1,0,1,0,False,1,-3,-0.25,1.2817398889233114,1.224744871391589,-2.0
45,1,1,0,-2,0,-2,0,-3,False,1,-3,-0.625,1.5059406173077154,1.541103500742244,-5.0
46,0,-1,0,0,-1,0,-1,1,False,1,-1,-0.25,0.7071067811865476,0.7071067811865476,-2.0
47,0,-2,-1,-1,-1,1,1,4,False,4,-2,0.125,1.8850918886280925,1.7677669529663689,1.0
48,1,1,-2,0,-1,0,0,3,False,3,-2,0.25,1.4880476182856899,1.4142135623730951,2.0
49,0,1,-2,0,0,0,0,-2,False,1,-2,-0.375,1.0606601717798212,1.0606601717798212,-3.0
50,0,0,-2,-3,-1,-2,-1,-4,False,0,-4,-1.625,1.4078859531733587,2.091650066335189,-13.0
51,-1,-1,1,0,-1,-1,-1,-2,False,1,-2,-0.75,0.8864052604279183,1.118033988749895,-6.0
52,-3,-1,0,1,0,0,-1,-3,False,1,-3,-0.875,1.4577379737113252,1.620185174601965,-7.0
53,1,1,1,1,0,0,-1,2,False,2,-1,0.625,0.9161253813129042,1.0606601717798212,5.0
54,-4,-3,0,-2,0,-1,-2,-2,False,0,-4,-1.75,1.3887301496588271,2.179449471770337,-14.0
55,-3,-1,-1,-1,-1,-1,-2,-12,False,-1,-12,-2.75,3.8078865529319543,4.5,-22.0
56,1,0,1,-1,-2,-3,0,0,False,1,-3,-0.5,1.4142135623730951,1.4142135623730951,-4.0
57,1,0,-2,-2,-2,0,-1,0,False,1,-2,-0.75,1.1649647450214349,1.3228756555322954,-6.0
58,-2,2,0,-1,-1,-1,-1,0,False,2,-2,-0.5,1.1952286093343936,1.224744871391589,-4.0
59,-3,0,-2,0,-1,0,-2,1,False,1,-3,-0.875,1.3562026818605375,1.541103500742244,-7.0
60,-1,-2,0,-1,2,1,0,1,False,2,-2,0.0,1.3093073414159542,1.224744871391589,0.0
61,3,-2,-2,-2,-1,-1,-1,-6,False,3,-6,-1.5,2.449489742783178,2.7386127875258306,-12.0
62,-3,0,-1,1,-2,-2,-1,-2,False,1,-3,-1.25,1.2817398889233114,1.7320508075688772,-10.0
63,0,-3,-2,-1,-1,-2,-1,-3,False,0,-3,-1.625,1.0606601717798212,1.9039432764659772,-13.0
64,-1,0,0,0,0,-2,1,3,False,3,-2,0.125,1.4577379737113252,1.3693063937629153,1.0
65,0,-1,-1,-2,0,-1,-1,0,False,0,-2,-0.75,0.7071067811865476,1.0,-6.0
66,-1,-3,-3,-2,-1,-2,0,-2,False,0,-3,-1.75,1.0350983390135313,2.0,-14.0
67,-2,-3,-3,1,-1,0,-1,-1,False,1,-3,-1.25,1.3887301496588271,1.8027756377319946,-10.0
68,-1,1,0,-1,1,0,-1,5,False,5,-1,0.5,2.0,1.9364916731037085,4.0
69,3,-2,-1,-2,-1,0,1,0,False,3,-2,-0.25,1.6690459207925603,1.5811388300841898,-2.0
70,0,-1,-1,0,0,-1,-2,-4,False,0,-4,-1.125,1.3562026818605375,1.695582495781317,-9.0
71,3,2,0,0,0,-1,1,3,False,3,-1,1.0,1.5118578920369088,1.7320508075688772,8.0
72,-1,-1,1,-1,0,-3,0,1,False,1,-3,-0.5,1.3093073414159542,1.3228756555322954,-4.0
73,1,-2,-1,-2,-1,-1,-2,-2,False,1,-2,-1.25,1.0350983390135313,1.5811388300841898,-10.0
74,-1,-2,-1,0,-2,0,-2,0,False,0,-2,-1.0,0.9258200997725514,1.3228756555322954,-8.0
75,-5,-1,0,-2,0,-1,-3,-6,False,0,-6,-2.25,2.2519832529192065,3.082207001484488,-18.0
76,0,1,-2,-1,-2,0,-1,-1,False,1,-2,-0.75,1.0350983390135313,1.224744871391589,-6.0
77,-2,-3,-1,0,-2,0,-2,0,False,0,-3,-1.25,1.1649647450214349,1.6583123951777,-10.0
78,-1,-1,-1,0,-1,0,-1,1,False,1,-1,-0.5,0.7559289460184544,0.8660254037844386,-4.0
79,-1,1,-1,2,-1,0,1,-1,False,2,-1,0.0,1.1952286093343936,1.118033988749895,0.0
80,-1,0,-1,-1,0,0,0,0,False,0,-1,-0.375,0.5175491695067657,0.6123724356957945,-3.0
81,0,-2,0,-2,-2,1,-1,1,False,1,-2,-0.625,1.3024701806293193,1.3693063937629153,-5.0
82,-1,2,0,-2,0,-3,-1,-2,False,2,-3,-0.875,1.5526475085202969,1.695582495781317,-7.0
83,0,1,-1,-1,-1,-3,0,-5,False,1,-5,-1.25,1.9086270308410553,2.179449471770337,-10.0
84,-3,-4,-3,-2,0,-1,-3,-14,False,0,-14,-3.75,4.334248987508019,5.522680508593631,-30.0
85,-1,0,-2,-1,-1,-1,-1,3,False,3,-2,-0.5,1.5118578920369088,1.5,-4.0
86,0,-1,0,0,0,1,1,0,False,1,-1,0.125,0.6408699444616557,0.6123724356957945,1.0
87,0,-2,-1,-1,0,2,1,-1,False,2,-2,-0.25,1.2817398889233114,1.224744871391589,-2.0
88,1,2,-2,-1,-3,0,1,1,False,2,-3,-0.125,1.7268882005337973,1.620185174601965,-1.0
89,-1,0,1,-1,-1,-1,-2,-2,False,1,-2,-0.875,0.9910312089651149,1.2747548783981961,-7.0
90,-1,-1,0,-2,1,-2,-1,0,False,1,-2,-0.75,1.0350983390135313,1.224744871391589,-6.0
91,1,-1,-2,-2,-1,-3,-2,-1,False,1,-3,-1.375,1.1877349391654206,1.7677669529663689,-11.0
92,-2,0,0,2,0,0,-3,1,False,2,-3,-0.25,1.5811388300841898,1.5,-2.0
93,-5,3,1,1,-1,-2,1,4,False,4,-5,0.25,2.866057521105554,2.692582403567252,2.0
94,0,-2,-2,0,1,0,-1,-3,False,1,-3,-0.875,1.3562026818605375,1.541103500742244,-7.0
95,-5,-5,-2,0,-1,-1,-2,-7,False,0,-7,-2.875,2.4748737341529163,3.69120576505835,-23.0
96,-1,0,-1,0,-1,0,-1,1,False,1,-1,-0.375,0.7440238091428449,0.7905694150420949,-3.0
97,-1,-1,-1,-1,0,-2,-1,1,False,1,-2,-0.75,0.8864052604279183,1.118033988749895,-6.0
98,0,-2,-1,-1,-1,0,0,1,False,1,-2,-0.5,0.9258200997725514,1.0,-4.0
99,0,0,-2,-1,-1,-2,-1,1,False,1,-2,-0.75,1.0350983390135313,1.224744871391589,-6.0
100,-1,0,1,-2,-2,-1,-1,-5,False,1,-5,-1.375,1.7677669529663689,2.1505813167606567,-11.0
101,1,-3,-1,-1,-1,-1,0,0,False,1,-3,-0.75,1.1649647450214349,1.3228756555322954,-6.0
102,-1,0,1,1,-1,-1,0,-1,False,1,-1,-0.25,0.8864052604279183,0.8660254037844386,-2.0
103,-1,-2,-1,-1,-2,0,0,-1,False,0,-2,-1.0,0.7559289460184544,1.224744871391589,-8.0
104,0,-2,0,-3,-1,-2,-2,-4,False,0,-4,-1.75,1.3887301496588271,2.179449471770337,-14.0
105,0,2,0,0,-2,-2,-1,0,False,2,-2,-0.375,1.3024701806293193,1.2747548783981961,-3.0
106,0,1,-1,0,-3,-1,-1,1,False,1,-3,-0.5,1.3093073414159542,1.3228756555322954,-4.0
107,1,1,0,0,1,-1,0,1,False,1,-1,0.375,0.7440238091428449,0.7905694150420949,3.0
108,2,-2,-3,-1,-2,-1,1,-4,False,2,-4,-1.25,1.9820624179302297,2.23606797749979,-10.0
109,1,0,-2,-2,-1,-2,-1,0,False,1,-2,-0.875,1.1259916264596033,1.3693063937629153,-7.0
110,-1,0,-1,-1,-2,-2,-2,-2,False,0,-2,-1.375,0.7440238091428449,1.541103500742244,-11.0
111,-2,0,-2,-2,0,0,-1,-1,False,0,-2,-1.0,0.9258200997725514,1.3228756555322954,-8.0
112,0,-1,0,-1,-1,0,-2,-1,False,0,-2,-0.75,0.7071067811865476,1.0,-6.0
113,-1,-2,-1,0,-1,0,-2,1,False,1,-2,-0.75,1.0350983390135313,1.224744871391589,-6.0
114,-3,-1,-2,1,-1,-1,1,5,False,5,-3,-0.125,2.4748737341529163,2.318404623873926,-1.0
115,-2,-1,0,0,0,1,-1,1,False,1,-2,-0.25,1.0350983390135313,1.0,-2.0
116,1,-2,-1,-1,-1,-1,-1,5,False,5,-2,-0.125,2.2320714274285347,2.091650066335189,-1.0
117,2,-1,-1,0,-3,-1,-2,-10,False,2,-10,-2.0,3.5456210417116734,3.872983346207417,-16.0
118,-2,-2,-1,-1,0,-1,-1,1,False,1,-2,-0.875,0.9910312089651149,1.2747548783981961,-7.0
119,-1,1,0,-1,-1,-1,-2,-1,False,1,-2,-0.75,0.8864052604279183,1.118033988749895,-6.0
120,0,-2,-1,-1,-1,-2,0,2,False,2,-2,-0.625,1.3024701806293193,1.3693063937629153,-5.0
121,4,-2,-1,0,-1,0,-1,0,False,4,-2,-0.125,1.807721533549109,1.695582495781317,-1.0
122,0,-1,0,-1,0,1,0,-1,False,1,-1,-0.25,0.7071067811865476,0.7071067811865476,-2.0
123,-3,-2,0,0,0,0,-1,-7,False,0,-7,-1.625,2.445841952609133,2.806243040080456,-13.0
124,-1,-3,0,-1,0,-1,0,2,False,2,-3,-0.5,1.4142135623730951,1.4142135623730951,-4.0
125,-4,-2,-3,-2,1,-1,0,-6,False,1,-6,-2.125,2.2320714274285347,2.979093821953246,-17.0
126,-1,-3,-2,-1,0,0,0,2,False,2,-3,-0.625,1.5059406173077154,1.541103500742244,-5.0
127,1,0,-1,-2,0,-2,1,6,False,6,-2,0.375,2.5599944196367748,2.4238399287081647,3.0
128,-1,0,0,-1,1,-1,0,-1,False,1,-1,-0.375,0.7440238091428449,0.7905694150420949,-3.0
129,-2,-1,0,-2,-1,0,-3,-2,False,0,-3,-1.375,1.0606601717798212,1.695582495781317,-11.0
130,-2,0,-2,-1,-1,1,0,1,False,1,-2,-0.5,1.1952286093343936,1.224744871391589,-4.0
131,1,-1,-3,-1,-1,-2,-1,-6,False,1,-6,-1.75,2.052872551885702,2.598076211353316,-14.0
132,-1,-1,0,0,-2,-1,-1,-3,False,0,-3,-1.125,0.9910312089651149,1.4577379737113252,-9.0
133,-1,0,-2,0,-2,1,0,1,False,1,-2,-0.375,1.1877349391654206,1.1726039399558574,-3.0
134,2,1,0,0,1,1,0,2,False,2,0,0.875,0.8345229603962802,1.1726039399558574,7.0
135,-2,-1,0,-1,0,1,0,1,False,1,-2,-0.25,1.0350983390135313,1.0,-2.0
136,0,-1,-1,0,1,-1,-1,1,False,1,-1,-0.25,0.8864052604279183,0.8660254037844386,-2.0
137,0,0,-2,2,-1,-2,-1,-1,False,2,-2,-0.625,1.3024701806293193,1.3693063937629153,-5.0
138,-1,-2,-1,0,-1,0,-2,0,False,0,-2,-0.875,0.8345229603962802,1.1726039399558574,-7.0
139,2,0,-2,-1,-1,-1,-1,0,False,2,-2,-0.5,1.1952286093343936,1.224744871391589,-4.0
140,-2,0,0,-1,0,0,-1,2,False,2,-2,-0.25,1.1649647450214349,1.118033988749895,-2.0
141,0,2,-1,0,0,-2,0,-1,False,2,-2,-0.25,1.1649647450214349,1.118033988749895,-2.0
142,-1,0,1,-1,-2,0,-1,-9,False,1,-9,-1.625,3.113908889391045,3.3354160160315836,-13.0
143,0,-3,-1,-1,0,-2,-2,-9,False,0,-9,-2.25,2.9154759474226504,3.5355339059327378,-18.0
144,0,1,-1,-3,-1,0,-1,2,False,2,-3,-0.375,1.5059406173077154,1.4577379737113252,-3.0
145,-1,-3,0,-1,0,1,-3,2,False,2,-3,-0.625,1.7677669529663689,1.7677669529663689,-5.0
146,0,-1,-1,-1,-2,-2,-1,0,False,0,-2,-1.0,0.7559289460184544,1.224744871391589,-8.0
147,-5,-2,-1,-1,-2,1,-1,-2,False,1,-5,-1.625,1.6850180160122068,2.2638462845343543,-13.0
148,-3,0,-1,0,-2,-2,0,-3,False,0,-3,-1.375,1.3024701806293193,1.8371173070873836,-11.0
149,0,1,0,-1,0,-1,1,3,False,3,-1,0.375,1.3024701806293193,1.2747548783981961,3.0
150,0,-2,-3,0,-1,-1,0,1,False,1,-3,-0.75,1.2817398889233114,1.4142135623730951,-6.0
151,0,-2,0,-1,-1,1,-1,4,False,4,-2,0.0,1.8516401995451028,1.7320508075688772,0.0
152,-3,-3,0,-2,-1,0,0,-6,False,0,-6,-1.875,2.100170061141308,2.715695122800054,-15.0
153,-4,-2,0,-1,0,-1,0,1,False,1,-4,-0.875,1.5526475085202969,1.695582495781317,-7.0
154,1,-1,-1,-1,-1,0,-3,-6,False,1,-6,-1.5,2.138089935299395,2.5,-12.0
155,-1,1,-1,0,0,-2,-1,-4,False,1,-4,-1.0,1.5118578920369088,1.7320508075688772,-8.0
156,-2,-1,0,-1,-1,-1,-2,1,False,1,-2,-0.875,0.9910312089651149,1.2747548783981961,-7.0
157,0,0,-2,-1,-2,-2,0,-1,False,0,-2,-1.0,0.9258200997725514,1.3228756555322954,-8.0
158,-1,-3,-1,1,-1,-1,1,-6,False,1,-6,-1.375,2.2638462845343543,2.5248762345905194,-11.0
159,-3,-1,0,-1,1,-1,-1,3,False,3,-3,-0.375,1.7677669529663689,1.695582495781317,-3.0
160,-1,1,-1,-3,-2,-2,0,6,False,6,-3,-0.25,2.8157719063467175,2.6457513110645907,-2.0
161,1,-1,-1,-2,-1,-1,1,-5,False,1,-5,-1.125,1.8850918886280925,2.091650066335189,-9.0
162,-1,1,-1,1,-1,0,0,0,False,1,-1,-0.125,0.8345229603962802,0.7905694150420949,-1.0
163,-2,-2,-1,1,0,-1,-2,-6,False,1,-6,-1.625,2.0658792662827956,2.5248762345905194,-13.0
164,2,-2,-2,-1,-1,-1,-1,2,False,2,-2,-0.5,1.6035674514745462,1.5811388300841898,-4.0
165,-1,0,1,0,-1,0,-2,1,False,1,-2,-0.25,1.0350983390135313,1.0,-2.0
166,-3,-2,-1,1,0,-1,-2,-1,False,1,-3,-1.125,1.2464234547582247,1.620185174601965,-9.0
167,-1,0,-1,-1,0,-1,-1,0,False,0,-1,-0.625,0.5175491695067657,0.7905694150420949,-5.0
168,-1,-1,-2,0,-1,-1,-1,1,False,1,-2,-0.75,0.8864052604279183,1.118033988749895,-6.0
169,0,0,-1,-1,-1,2,-1,0,False,2,-1,-0.25,1.0350983390135313,1.0,-2.0
170,0,-2,0,-1,0,-1,0,-5,False,0,-5,-1.125,1.7268882005337973,1.9685019685029528,-9.0
171,1,-1,-1,-1,-1,1,-2,1,False,1,-2,-0.375,1.1877349391654206,1.1726039399558574,-3.0
172,2,0,0,-1,-1,0,0,3,False,3,-1,0.375,1.4078859531733587,1.3693063937629153,3.0
173,1,3,1,-2,0,-2,0,-2,False,3,-2,-0.125,1.807721533549109,1.695582495781317,-1.0
174,-1,-3,-1,-1,0,0,0,-2,False,0,-3,-1.0,1.0690449676496976,1.4142135623730951,-8.0
175,0,-1,-1,0,-2,-1,-2,-1,False,0,-2,-1.0,0.7559289460184544,1.224744871391589,-8.0
176,0,1,-1,-1,-1,-1,0,-1,False,1,-1,-0.5,0.7559289460184544,0.8660254037844386,-4.0
177,-2,-4,-1,0,0,0,0,-2,False,0,-4,-1.125,1.4577379737113252,1.7677669529663689,-9.0
178,-1,-1,-1,-1,1,-1,0,3,False,3,-1,-0.125,1.4577379737113252,1.3693063937629153,-1.0
179,-6,1,0,-1,0,-1,0,1,False,1,-6,-0.75,2.2519832529192065,2.23606797749979,-6.0
180,-1,1,-1,-1,-2,-1,0,-2,False,1,-2,-0.875,0.9910312089651149,1.2747548783981961,-7.0
181,-1,-1,-3,1,-3,0,1,4,False,4,-3,-0.25,2.3145502494313788,2.179449471770337,-2.0
182,-1,2,1,-1,0,-2,-3,0,False,2,-3,-0.5,1.6035674514745462,1.5811388300841898,-4.0
183,3,-1,0,-3,-2,0,0,-2,False,3,-3,-0.625,1.8468119248354136,1.8371173070873836,-5.0
184,0,-1,-1,-1,0,-1,-1,-1,False,0,-1,-0.75,0.4629100498862757,0.8660254037844386,-6.0
185,-1,0,0,-1,0,-1,-1,2,False,2,-1,-0.25,1.0350983390135313,1.0,-2.0
186,0,1,-1,0,1,-1,0,2,False,2,-1,0.25,1.0350983390135313,1.0,2.0
187,1,-1,-1,-1,0,-1,-2,-2,False,1,-2,-0.875,0.9910312089651149,1.2747548783981961,-7.0
188,-1,0,-4,-2,-3,0,-1,1,False,1,-4,-1.25,1.6690459207925603,2.0,-10.0
189,0,-2,-1,-2,-1,0,1,4,False,4,-2,-0.125,1.9594095320493146,1.8371173070873836,-1.0
190,3,1,1,0,0,-1,-2,2,False,3,-2,0.5,1.6035674514745462,1.5811388300841898,4.0
191,-1,-1,1,-1,-2,0,-2,-6,False,1,-6,-1.5,2.0701966780270626,2.449489742783178,-12.0
192,-2,-1,-1,-1,-1,-3,-1,-2,False,-1,-3,-1.5,0.7559289460184544,1.6583123951777,-12.0
193,-1,0,-1,0,0,-1,-1,1,False,1,-1,-0.375,0.7440238091428449,0.7905694150420949,-3.0
194,-1,-1,-1,0,0,-1,-1,-6,False,0,-6,-1.375,1.922609833384967,2.2638462845343543,-11.0
195,0,-1,-2,0,0,0,-2,-2,False,0,-2,-0.875,0.9910312089651149,1.2747548783981961,-7.0
196,-3,1,0,-2,-1,1,0,1,False,1,-3,-0.375,1.5059406173077154,1.4577379737113252,-3.0
197,-2,1,-1,0,-1,-1,0,2,False,2,-2,-0.25,1.2817398889233114,1.224744871391589,-2.0
198,-1,0,0,1,0,0,-3,1,False,1,-3,-0.25,1.2817398889233114,1.224744871391589,-2.0
199,1,3,0,0,0,0,0,0,False,3,0,0.5,1.0690449676496976,1.118033988749895,4.0
200,-2,-2,0,-1,0,0,-1,0,False,0,-2,-0.75,0.8864052604279183,1.118033988749895,-6.0
201,0,-1,-1,-1,-1,-3,-2,-4,False,0,-4,-1.625,1.3024701806293193,2.03100960115899,-13.0
202,0,-2,0,-1,1,-2,1,-1,False,1,-2,-0.5,1.1952286093343936,1.224744871391589,-4.0
203,-1,-3,-1,-1,-2,-3,-1,-9,False,-1,-9,-2.625,2.7222627143085005,3.6571847095819483,-21.0
204,-3,1,-2,0,0,1,-1,-2,False,1,-3,-0.75,1.4880476182856899,1.5811388300841898,-6.0
205,-2,-2,1,0,0,1,-2,-2,False,1,-2,-0.75,1.3887301496588271,1.5,-6.0
206,-1,-2,-4,-1,-3,-3,-1,-4,False,-1,-4,-2.375,1.3024701806293193,2.669269563007828,-19.0
207,-2,-2,0,-2,0,0,1,-2,False,1,-2,-0.875,1.2464234547582247,1.4577379737113252,-7.0
208,0,-2,0,-1,-1,0,0,4,False,4,-2,0.0,1.7728105208558367,1.6583123951777,0.0
209,-1,-2,-2,-2,0,-2,-3,-4,False,0,-4,-2.0,1.1952286093343936,2.29128784747792,-16.0
210,1,-2,-1,-2,0,-1,-1,-2,False,1,-2,-1.0,1.0690449676496976,1.4142135623730951,-8.0
211,0,0,0,0,0,0,-1,4,False,4,-1,0.375,1.5059406173077154,1.4577379737113252,3.0
212,1,-2,-3,-1,-2,-2,-1,-2,False,1,-3,-1.5,1.1952286093343936,1.8708286933869707,-12.0
213,-2,-4,1,-1,-1,-2,1,1,False,1,-4,-0.875,1.807721533549109,1.9039432764659772,-7.0
214,-1,0,0,-1,0,0,0,-1,False,0,-1,-0.375,0.5175491695067657,0.6123724356957945,-3.0
215,-4,-2,-2,-2,0,0,-3,-4,False,0,-4,-2.125,1.5526475085202969,2.57390753524675,-17.0
216,-2,0,1,0,0,1,-1,4,False,4,-2,0.375,1.7677669529663689,1.695582495781317,3.0
217,1,0,0,0,-1,0,0,4,False,4,-1,0.5,1.5118578920369088,1.5,4.0
218,0,-2,-1,0,-2,0,-2,-5,False,0,-5,-1.5,1.6903085094570331,2.179449471770337,-12.0
219,-1,0,-3,-1,-1,0,-1,0,False,0,-3,-0.875,0.9910312089651149,1.2747548783981961,-7.0
220,-1,-1,-1,-1,0,-1,0,-7,False,0,-7,-1.5,2.2677868380553634,2.598076211353316,-12.0
221,1,0,-2,0,-2,-1,-1,-1,False,1,-2,-0.75,1.0350983390135313,1.224744871391589,-6.0
222,0,0,0,-1,-2,-2,-1,-2,False,0,-2,-1.0,0.9258200997725514,1.3228756555322954,-8.0
223,0,2,0,0,-1,-1,0,-1,False,2,-1,-0.125,0.9910312089651149,0.9354143466934853,-1.0
224,-2,-1,0,1,0,0,1,2,False,2,-2,0.125,1.2464234547582247,1.1726039399558574,1.0
225,2,-2,-1,-2,0,-1,0,-5,False,2,-5,-1.125,2.03100960115899,2.2079402165819615,-9.0
226,1,0,-1,0,0,-1,0,3,False,3,-1,0.25,1.2817398889233114,1.224744871391589,2.0
227,-2,0,2,-2,-1,1,0,7,False,7,-2,0.625,2.9246489410818914,2.806243040080456,5.0
228,-7,-3,-1,-3,-3,-1,-1,-5,False,-1,-7,-3.0,2.138089935299395,3.605551275463989,-24.0
229,-1,-1,0,-1,2,0,-2,0,False,2,-2,-0.375,1.1877349391654206,1.1726039399558574,-3.0
230,1,1,-2,-1,0,-1,-1,7,False,7,-2,0.5,2.8284271247461903,2.692582403567252,4.0
231,0,0,-1,0,-1,-2,-1,-1,False,0,-2,-0.75,0.7071067811865476,1.0,-6.0
232,-1,-1,-1,0,1,-1,1,0,False,1,-1,-0.25,0.8864052604279183,0.8660254037844386,-2.0
233,0,-1,0,-1,-2,-3,0,-2,False,0,-3,-1.125,1.1259916264596033,1.541103500742244,-9.0
234,3,2,0,-2,-2,0,-1,-3,False,3,-3,-0.375,2.0658792662827956,1.9685019685029528,-3.0
235,-2,-1,-2,2,-2,0,-1,1,False,2,-2,-0.625,1.5059406173077154,1.541103500742244,-5.0
236,-1,-2,0,-1,0,-2,-1,6,False,6,-2,-0.125,2.5877458475338284,2.4238399287081647,-1.0
237,2,-2,0,-2,0,-2,-1,-1,False,2,-2,-0.75,1.3887301496588271,1.5,-6.0
238,1,-2,0,-1,0,0,-2,-1,False,1,-2,-0.625,1.0606601717798212,1.1726039399558574,-5.0
239,1,-1,-3,-2,0,-3,2,-1,False,2,-3,-0.875,1.807721533549109,1.9039432764659772,-7.0
240,-2,-2,-2,-2,-1,-2,-4,-9,False,-1,-9,-3.0,2.5634797778466227,3.840572873934304,-24.0
241,0,0,0,0,-2,0,-1,0,False,0,-2,-0.375,0.7440238091428449,0.7905694150420949,-3.0
242,-2,-3,-2,-1,0,-2,0,-1,False,0,-3,-1.375,1.0606601717798212,1.695582495781317,-11.0
243,-1,0,-3,0,-2,0,-2,0,False,0,-3,-1.0,1.1952286093343936,1.5,-8.0
244,-2,-1,0,1,1,-1,-1,0,False,1,-2,-0.375,1.0606601717798212,1.0606601717798212,-3.0
245,0,-1,2,-2,1,0,1,0,False,2,-2,0.125,1.2464234547582247,1.1726039399558574,1.0
246,2,-1,0,-1,0,1,0,2,False,2,-1,0.375,1.1877349391654206,1.1726039399558574,3.0
247,3,0,0,-1,0,1,0,3,False,3,-1,0.75,1.4880476182856899,1.5811388300841898,6.0
248,1,0,0,-1,-2,0,-1,-5,False,1,-5,-1.0,1.8516401995451028,2.0,-8.0
249,-3,1,-1,0,-1,0,-1,-1,False,1,-3,-0.75,1.1649647450214349,1.3228756555322954,-6.0
250,-7,-1,-1,-2,-2,0,0,-2,False,0,-7,-1.875,2.2320714274285347,2.806243040080456,-15.0
251,0,0,1,-1,-2,-1,-3,-3,False,1,-3,-1.125,1.4577379737113252,1.7677669529663689,-9.0
252,0,0,-1,1,-2,0,-1,2,False,2,-2,-0.125,1.2464234547582247,1.1726039399558574,-1.0
253,-3,-1,-3,-1,0,-1,0,0,False,0,-3,-1.125,1.2464234547582247,1.620185174601965,-9.0
254,1,-2,-3,-1,0,0,0,1,False,1,-3,-0.5,1.4142135623730951,1.4142135623730951,-4.0
255,0,-1,0,-2,1,-2,-1,-3,False,1,-3,-1.0,1.3093073414159542,1.5811388300841898,-8.0
256,0,-1,-1,-1,0,-2,-2,-2,False,0,-2,-1.125,0.8345229603962802,1.3693063937629153,-9.0
257,3,2,-2,-1,0,-2,0,-1,False,3,-2,-0.125,1.807721533549109,1.695582495781317,-1.0
258,0,0,0,0,0,-1,1,0,False,1,-1,0.0,0.5345224838248488,0.5,0.0
259,2,-3,-1,1,-1,-1,-2,0,False,2,-3,-0.625,1.5979898086569353,1.620185174601965,-5.0
260,0,-2,-2,-1,-2,0,0,0,False,0,-2,-0.875,0.9910312089651149,1.2747548783981961,-7.0
261,0,-1,0,-1,-1,-1,0,-3,False,0,-3,-0.875,0.9910312089651149,1.2747548783981961,-7.0
262,-3,-1,-2,1,0,0,-1,1,False,1,-3,-0.625,1.4078859531733587,1.4577379737113252,-5.0
263,-2,-1,-1,-1,-2,-1,-2,-3,False,-1,-3,-1.625,0.7440238091428449,1.7677669529663689,-13.0
264,0,-1,-2,-1,1,-2,-1,1,False,1,-2,-0.625,1.1877349391654206,1.2747548783981961,-5.0
265,1,1,0,-1,-1,-1,0,4,False,4,-1,0.375,1.6850180160122068,1.620185174601965,3.0
266,-3,0,0,-1,-1,0,1,-3,False,1,-3,-0.875,1.4577379737113252,1.620185174601965,-7.0
267,-2,-3,-2,1,-1,0,-1,-9,False,1,-9,-2.125,3.044315545875155,3.553167600887974,-17.0
268,0,-1,0,1,0,-1,-2,0,False,1,-2,-0.375,0.9161253813129042,0.9354143466934853,-3.0
269,-1,0,0,-1,-1,-1,-2,-1,False,0,-2,-0.875,0.6408699444616557,1.0606601717798212,-7.0
270,-2,-2,-2,-1,-2,1,0,-1,False,1,-2,-1.125,1.1259916264596033,1.541103500742244,-9.0
271,0,-1,-1,-1,-2,-2,-1,3,False,3,-2,-0.625,1.5979898086569353,1.620185174601965,-5.0
272,0,-1,0,-1,-1,-2,-2,4,False,4,-2,-0.375,1.922609833384967,1.8371173070873836,-3.0
273,-3,-2,0,-1,-2,1,0,-1,False,1,-3,-1.0,1.3093073414159542,1.5811388300841898,-8.0
274,1,0,1,0,-2,-1,-1,-3,False,1,-3,-0.625,1.4078859531733587,1.4577379737113252,-5.0
275,-1,0,0,-1,0,0,2,0,False,2,-1,0.0,0.9258200997725514,0.8660254037844386,0.0
276,0,-1,-1,-2,-2,-2,-1,-5,False,0,-5,-1.75,1.4880476182856899,2.23606797749979,-14.0
277,-1,-3,0,-2,0,0,0,1,False,1,-3,-0.625,1.3024701806293193,1.3693063937629153,-5.0
278,-1,0,-3,-1,0,-3,-2,-11,False,0,-11,-2.625,3.583194903195431,4.257346591481601,-21.0
279,-2,-2,-2,-2,-3,-1,0,-2,False,0,-3,-1.75,0.8864052604279183,1.9364916731037085,-14.0
280,-1,-1,0,0,-1,1,-1,3,False,3,-1,0.0,1.4142135623730951,1.3228756555322954,0.0
281,0,-1,0,0,0,-3,-1,-1,False,0,-3,-0.75,1.0350983390135313,1.224744871391589,-6.0
282,0,0,-2,0,-1,-1,1,-3,False,1,-3,-0.75,1.2817398889233114,1.4142135623730951,-6.0
283,0,1,-2,1,-1,-1,-2,2,False,2,-2,-0.25,1.4880476182856899,1.4142135623730951,-2.0
284,-3,-3,-2,-1,0,-1,-1,0,False,0,-3,-1.375,1.1877349391654206,1.7677669529663689,-11.0
285,1,-2,-2,0,0,-1,-1,1,False,1,-2,-0.5,1.1952286093343936,1.224744871391589,-4.0
286,1,0,0,0,0,0,0,0,False,1,0,0.125,0.3535533905932738,0.3535533905932738,1.0
287,-1,0,1,0,0,0,-1,-5,False,1,-5,-0.75,1.8322507626258084,1.8708286933869707,-6.0
288,-2,-4,0,-4,0,-2,-1,6,False,6,-4,-0.875,3.181980515339464,3.1024184114977142,-7.0
289,-1,-1,-1,-1,1,1,-2,0,False,1,-2,-0.5,1.0690449676496976,1.118033988749895,-4.0
290,0,-1,-2,-1,-2,-1,0,2,False,2,-2,-0.625,1.3024701806293193,1.3693063937629153,-5.0
291,0,1,-2,-1,0,-1,-1,-1,False,1,-2,-0.625,0.9161253813129042,1.0606601717798212,-5.0
292,1,-1,-1,1,1,-1,0,-4,False,1,-4,-0.5,1.6903085094570331,1.6583123951777,-4.0
293,-4,0,-1,0,0,-1,-2,-6,False,0,-6,-1.75,2.187627547301936,2.692582403567252,-14.0
294,-1,0,1,-1,1,1,-1,-1,False,1,-1,-0.125,0.9910312089651149,0.9354143466934853,-1.0
295,1,0,0,-1,-2,-1,0,6,False,6,-2,0.375,2.445841952609133,2.318404623873926,3.0
296,-1,2,0,0,-3,0,1,3,False,3,-3,0.25,1.8322507626258084,1.7320508075688772,2.0
297,1,0,0,0,-1,0,-1,3,False,3,-1,0.25,1.2817398889233114,1.224744871391589,2.0
298,0,0,-1,-2,-1,0,1,4,False,4,-2,0.125,1.807721533549109,1.695582495781317,1.0
299,-1,-2,-1,-1,-1,-3,-3,-4,False,-1,-4,-2.0,1.1952286093343936,2.29128784747792,-16.0
300,-3,-4,-2,-3,-3,-2,-1,1,False,1,-4,-2.125,1.5526475085202969,2.57390753524675,-17.0
301,-2,-1,-3,-1,-2,-1,-1,0,False,0,-3,-1.375,0.9161253813129042,1.620185174601965,-11.0
302,-2,-1,-2,-2,0,0,-1,-1,False,0,-2,-1.125,0.8345229603962802,1.3693063937629153,-9.0
303,-2,0,-1,-1,-1,-1,1,-3,False,1,-3,-1.0,1.1952286093343936,1.5,-8.0
304,1,0,-3,0,-1,-2,-3,-6,False,1,-6,-1.75,2.2519832529192065,2.7386127875258306,-14.0
305,-2,-1,-1,-1,-2,-2,0,-2,False,0,-2,-1.375,0.7440238091428449,1.541103500742244,-11.0
306,-1,1,1,-2,-1,0,-1,-2,False,1,-2,-0.625,1.1877349391654206,1.2747548783981961,-5.0
307,0,-1,1,-1,0,-2,-2,2,False,2,-2,-0.375,1.4078859531733587,1.3693063937629153,-3.0
308,0,-3,1,2,-1,-2,-1,-1,False,2,-3,-0.625,1.5979898086569353,1.620185174601965,-5.0
309,0,-1,-2,-3,-1,-1,-1,-5,False,0,-5,-1.75,1.5811388300841898,2.29128784747792,-14.0
310,0,-1,-1,-1,1,-2,-1,-3,False,1,-3,-1.0,1.1952286093343936,1.5,-8.0
311,1,0,0,-1,0,0,-2,-2,False,1,-2,-0.5,1.0690449676496976,1.118033988749895,-4.0
312,-4,-2,-4,-1,-1,-2,-2,-6,False,-1,-6,-2.75,1.752549163769328,3.2015621187164243,-22.0
313,-2,-1,-2,0,-2,0,-2,-4,False,0,-4,-1.625,1.3024701806293193,2.03100960115899,-13.0
314,2,1,-1,0,-2,1,-1,4,False,4,-2,0.5,1.927248223318863,1.8708286933869707,4.0
315,-1,-1,-2,-2,1,0,0,3,False,3,-2,-0.25,1.6690459207925603,1.5811388300841898,-2.0
316,-1,-1,0,-1,-1,-1,-1,-1,False,0,-1,-0.875,0.3535533905932738,0.9354143466934853,-7.0
317,-1,-2,0,0,0,-1,0,-1,False,0,-2,-0.625,0.7440238091428449,0.9354143466934853,-5.0
318,-3,1,-1,-3,-1,0,-1,-2,False,1,-3,-1.25,1.3887301496588271,1.8027756377319946,-10.0
319,-1,0,-1,0,-2,0,0,-5,False,0,-5,-1.125,1.7268882005337973,1.9685019685029528,-9.0
320,-2,0,1,0,0,-1,-1,-3,False,1,-3,-0.75,1.2817398889233114,1.4142135623730951,-6.0
321,0,-1,-1,-1,-1,-2,0,2,False,2,-2,-0.5,1.1952286093343936,1.224744871391589,-4.0
322,0,-2,-2,0,1,-1,-1,-1,False,1,-2,-0.75,1.0350983390135313,1.224744871391589,-6.0
323,2,1,0,-1,2,0,0,0,False,2,-1,0.5,1.0690449676496976,1.118033988749895,4.0
324,2,1,1,0,-2,0,0,0,False,2,-2,0.25,1.1649647450214349,1.118033988749895,2.0
325,-1,-1,-1,0,-2,-2,-2,-3,False,0,-3,-1.5,0.9258200997725514,1.7320508075688772,-12.0
326,-1,-1,-1,0,-1,-1,-1,1,False,1,-1,-0.625,0.7440238091428449,0.9354143466934853,-5.0
327,0,-3,0,-3,-1,-2,0,-6,False,0,-6,-1.875,2.100170061141308,2.715695122800054,-15.0
328,1,-1,0,-1,-2,-1,-1,-1,False,1,-2,-0.75,0.8864052604279183,1.118033988749895,-6.0
329,0,-2,0,1,-1,0,0,3,False,3,-2,0.125,1.4577379737113252,1.3693063937629153,1.0
330,-3,-3,-2,0,-2,0,-1,-6,False,0,-6,-2.125,1.9594095320493146,2.806243040080456,-17.0
331,-4,1,0,0,-1,0,0,2,False,2,-4,-0.25,1.752549163769328,1.6583123951777,-2.0
332,0,1,-1,-1,-1,-2,1,0,False,1,-2,-0.375,1.0606601717798212,1.0606601717798212,-3.0
333,1,-2,-1,-1,-1,2,0,1,False,2,-2,-0.125,1.3562026818605375,1.2747548783981961,-1.0
334,-1,-2,-2,-1,1,0,-3,-1,False,1,-3,-1.125,1.2464234547582247,1.620185174601965,-9.0
335,2,-1,-1,-2,0,-2,-1,-1,False,2,-2,-0.75,1.2817398889233114,1.4142135623730951,-6.0
336,-8,-3,-2,-1,-2,-1,-1,-3,False,-1,-8,-2.625,2.326094212561969,3.409545424246464,-21.0
337,-3,1,0,0,0,0,-1,2,False,2,-3,-0.125,1.4577379737113252,1.3693063937629153,-1.0
338,1,0,-1,-2,-2,-1,-3,-1,False,1,-3,-1.125,1.2464234547582247,1.620185174601965,-9.0
339,0,1,-2,-2,-2,-1,0,2,False,2,-2,-0.5,1.5118578920369088,1.5,-4.0
340,1,-3,-1,0,-1,0,-2,-3,False,1,-3,-1.125,1.4577379737113252,1.7677669529663689,-9.0
341,2,-1,-2,-1,0,0,-2,-4,False,2,-4,-1.0,1.7728105208558367,1.9364916731037085,-8.0
342,2,-2,-1,-1,-2,-1,-1,0,False,2,-2,-0.75,1.2817398889233114,1.4142135623730951,-6.0
343,-1,-3,-2,-1,-1,-2,0,-4,False,0,-4,-1.75,1.2817398889233114,2.1213203435596424,-14.0
344,1,0,-1,-1,0,-1,0,3,False,3,-1,0.125,1.3562026818605375,1.2747548783981961,1.0
345,-1,1,0,0,0,0,-1,3,False,3,-1,0.25,1.2817398889233114,1.224744871391589,2.0
346,0,1,0,-1,-2,1,0,-3,False,1,-3,-0.5,1.4142135623730951,1.4142135623730951,-4.0
347,-2,0,-1,-1,-1,-1,-2,3,False,3,-2,-0.625,1.5979898086569353,1.620185174601965,-5.0
348,0,0,2,1,1,0,1,4,False,4,0,1.125,1.3562026818605375,1.695582495781317,9.0
349,-2,-2,-2,2,-1,0,-2,-4,False,2,-4,-1.375,1.7677669529663689,2.1505813167606567,-11.0
350,-6,-5,-3,-1,1,-2,-2,1,False,1,-6,-2.125,2.5319388392523003,3.181980515339464,-17.0
351,0,-2,-1,0,-2,-1,0,-4,False,0,-4,-1.25,1.3887301496588271,1.8027756377319946,-10.0
352,0,1,-1,-1,-2,-1,-1,-3,False,1,-3,-1.0,1.1952286093343936,1.5,-8.0
353,1,-2,-2,-1,-1,-1,-1,-2,False,1,-2,-1.125,0.9910312089651149,1.4577379737113252,-9.0
354,1,-2,-1,-3,0,0,0,3,False,3,-3,-0.25,1.8322507626258084,1.7320508075688772,-2.0
355,-3,-1,1,-3,0,-1,0,-2,False,1,-3,-1.125,1.4577379737113252,1.7677669529663689,-9.0
356,1,3,-1,-2,1,-1,-1,4,False,4,-2,0.5,2.138089935299395,2.0615528128088303,4.0
357,0,0,0,-2,0,-1,1,2,False,2,-2,0.0,1.1952286093343936,1.118033988749895,0.0
358,-2,-1,-1,-1,-3,-1,-1,1,False,1,-3,-1.125,1.1259916264596033,1.541103500742244,-9.0
359,0,-2,-2,-2,0,1,-3,-3,False,1,-3,-1.375,1.5059406173077154,1.9685019685029528,-11.0
360,-3,-1,-1,0,0,-1,-1,-2,False,0,-3,-1.125,0.9910312089651149,1.4577379737113252,-9.0
361,-1,0,-1,-1,0,1,0,3,False,3,-1,0.125,1.3562026818605375,1.2747548783981961,1.0
362,-1,1,-1,0,-2,-1,0,-2,False,1,-2,-0.75,1.0350983390135313,1.224744871391589,-6.0
363,1,0,-1,-1,-3,0,-1,2,False,2,-3,-0.375,1.5059406173077154,1.4577379737113252,-3.0
364,0,-2,-1,0,-1,0,-1,-3,False,0,-3,-1.0,1.0690449676496976,1.4142135623730951,-8.0
365,-1,-6,-4,0,-2,-2,-1,-8,False,0,-8,-3.0,2.7774602993176543,3.968626966596886,-24.0
366,0,-1,-2,0,-1,0,-3,-1,False,0,-3,-1.0,1.0690449676496976,1.4142135623730951,-8.0
367,-2,-1,1,-1,-1,0,0,3,False,3,-2,-0.125,1.5526475085202969,1.4577379737113252,-1.0
368,-2,0,-1,-1,-1,1,0,-4,False,1,-4,-1.0,1.5118578920369088,1.7320508075688772,-8.0
369,0,1,0,-1,1,1,-1,1,False,1,-1,0.25,0.8864052604279183,0.8660254037844386,2.0
370,2,-1,1,-2,1,0,-1,3,False,3,-2,0.375,1.6850180160122068,1.620185174601965,3.0
371,0,-1,1,-3,-1,0,-2,0,False,1,-3,-0.75,1.2817398889233114,1.4142135623730951,-6.0
372,2,-2,-2,0,-1,-1,-1,-1,False,2,-2,-0.75,1.2817398889233114,1.4142135623730951,-6.0
373,-2,-1,0,0,-1,-3,0,0,False,0,-3,-0.875,1.1259916264596033,1.3693063937629153,-7.0
374,0,0,0,0,-1,-1,0,-1,False,0,-1,-0.375,0.5175491695067657,0.6123724356957945,-3.0
375,-3,-1,-3,-1,0,-2,-2,-4,False,0,-4,-2.0,1.3093073414159542,2.345207879911715,-16.0
376,1,-3,-1,0,0,0,-1,2,False,2,-3,-0.25,1.4880476182856899,1.4142135623730951,-2.0
377,1,0,-1,-1,-3,0,-2,-1,False,1,-3,-0.875,1.2464234547582247,1.4577379737113252,-7.0
378,-3,1,0,-1,1,-1,-1,-1,False,1,-3,-0.625,1.3024701806293193,1.3693063937629153,-5.0
379,0,0,-1,-1,0,-3,0,0,False,0,-3,-0.625,1.0606601717798212,1.1726039399558574,-5.0
380,-1,0,1,-1,-3,-1,1,-2,False,1,-3,-0.75,1.3887301496588271,1.5,-6.0
381,1,0,0,0,0,0,0,-3,False,1,-3,-0.25,1.1649647450214349,1.118033988749895,-2.0
382,-2,-1,-2,-1,0,-2,-2,1,False,1,-2,-1.125,1.1259916264596033,1.541103500742244,-9.0
383,2,-3,-2,0,-2,-2,-1,0,False,2,-3,-1.0,1.6035674514745462,1.8027756377319946,-8.0
384,-1,-1,-3,-2,0,1,-1,0,False,1,-3,-0.875,1.2464234547582247,1.4577379737113252,-7.0
385,-1,1,0,1,0,0,-1,-2,False,1,-2,-0.25,1.0350983390135313,1.0,-2.0
386,0,0,-1,0,-1,0,0,-2,False,0,-2,-0.5,0.7559289460184544,0.8660254037844386,-4.0
387,0,-1,-2,-2,-1,-1,-1,-2,False,0,-2,-1.25,0.7071067811865476,1.4142135623730951,-10.0
388,1,-1,2,0,0,-2,0,0,False,2,-2,0.0,1.1952286093343936,1.118033988749895,0.0
389,-4,-5,-1,-2,-1,0,-2,-4,False,0,-5,-2.375,1.7677669529663689,2.8939592256975564,-19.0
390,0,-1,-1,-1,-2,0,-3,-4,False,0,-4,-1.5,1.4142135623730951,2.0,-12.0
391,-2,-2,-3,-1,-1,-1,0,0,False,0,-3,-1.25,1.0350983390135313,1.5811388300841898,-10.0
392,-1,-2,-2,-1,0,-1,0,-2,False,0,-2,-1.125,0.8345229603962802,1.3693063937629153,-9.0
393,-2,0,0,0,-1,0,-2,-4,False,0,-4,-1.125,1.4577379737113252,1.7677669529663689,-9.0
394,-1,0,-2,-2,-1,-1,1,0,False,1,-2,-0.75,1.0350983390135313,1.224744871391589,-6.0
395,2,1,2,0,0,-2,1,6,False,6,-2,1.25,2.3145502494313788,2.5,10.0
396,3,-2,-1,-2,0,-2,-3,-1,False,3,-3,-1.0,1.8516401995451028,2.0,-8.0
397,-3,-2,-2,-2,-2,-1,-1,-3,False,-1,-3,-2.0,0.7559289460184544,2.1213203435596424,-16.0
398,-2,-4,-3,-2,-1,0,0,-12,False,0,-12,-3.0,3.8913824205360674,4.716990566028302,-24.0
399,-1,0,1,1,-1,-1,-1,-3,False,1,-3,-0.625,1.3024701806293193,1.3693063937629153,-5.0
400,-3,1,-1,-1,0,0,0,1,False,1,-3,-0.375,1.3024701806293193,1.2747548783981961,-3.0
401,3,-1,0,1,0,0,0,1,False,3,-1,0.5,1.1952286093343936,1.224744871391589,4.0
402,-2,-2,0,-1,-2,1,-1,3,False,3,-2,-0.5,1.7728105208558367,1.7320508075688772,-4.0
403,-3,0,-2,-2,1,0,-1,-3,False,1,-3,-1.25,1.4880476182856899,1.8708286933869707,-10.0
404,0,-1,0,1,0,-1,-2,0,False,1,-2,-0.375,0.9161253813129042,0.9354143466934853,-3.0
405,-2,1,0,-1,-1,0,1,4,False,4,-2,0.25,1.8322507626258084,1.7320508075688772,2.0
406,1,-2,-1,-3,-3,-1,-1,-3,False,1,-3,-1.625,1.4078859531733587,2.091650066335189,-13.0
407,-1,-1,-2,0,0,-1,-2,-2,False,0,-2,-1.125,0.8345229603962802,1.3693063937629153,-9.0
408,1,-1,-1,-1,1,-1,-2,-1,False,1,-2,-0.625,1.0606601717798212,1.1726039399558574,-5.0
409,-1,0,-3,-4,-2,0,-2,-3,False,0,-4,-1.875,1.4577379737113252,2.318404623873926,-15.0
410,-5,-3,-3,-1,-1,0,-1,-10,False,0,-10,-3.0,3.251373336211726,4.272001872658765,-24.0
411,-2,-1,1,0,-1,0,0,-2,False,1,-2,-0.625,1.0606601717798212,1.1726039399558574,-5.0
412,0,1,0,0,0,0,1,5,False,5,0,0.875,1.7268882005337973,1.8371173070873836,7.0
413,1,-1,-3,-1,0,-1,-1,2,False,2,-3,-0.5,1.5118578920369088,1.5,-4.0
414,-3,1,-1,0,0,-1,1,4,False,4,-3,0.125,2.03100960115899,1.9039432764659772,1.0
415,-3,0,-1,-1,-2,-3,-1,-2,False,0,-3,-1.625,1.0606601717798212,1.9039432764659772,-13.0
416,2,1,0,-2,-1,-1,-2,2,False,2,-2,-0.125,1.6420805617960925,1.541103500742244,-1.0
417,1,1,-1,0,-2,-1,0,0,False,1,-2,-0.25,1.0350983390135313,1.0,-2.0
418,-1,-1,-2,-1,-1,-1,0,6,False,6,-2,-0.125,2.5319388392523003,2.3717082451262845,-1.0
419,-2,-3,0,-1,-1,-1,-2,-5,False,0,-5,-1.875,1.5526475085202969,2.3717082451262845,-15.0
420,0,-1,-1,-1,0,0,-1,2,False,2,-1,-0.25,1.0350983390135313,1.0,-2.0
421,-2,-2,-1,1,1,1,-1,-5,False,1,-5,-1.0,2.0701966780270626,2.179449471770337,-8.0
422,-3,-2,0,1,0,0,0,-2,False,1,-3,-0.75,1.3887301496588271,1.5,-6.0
423,0,0,1,-2,-1,0,0,-2,False,1,-2,-0.5,1.0690449676496976,1.118033988749895,-4.0
424,0,-1,0,-1,-2,-2,0,-2,False,0,-2,-1.0,0.9258200997725514,1.3228756555322954,-8.0
425,-1,0,-1,-1,0,-1,0,-1,False,0,-1,-0.625,0.5175491695067657,0.7905694150420949,-5.0
426,-2,1,0,0,-1,-2,-1,-1,False,1,-2,-0.75,1.0350983390135313,1.224744871391589,-6.0
427,-1,-1,-1,0,0,-1,-2,-7,False,0,-7,-1.625,2.2638462845343543,2.669269563007828,-13.0
428,-2,-1,0,-1,0,0,-1,-4,False,0,-4,-1.125,1.3562026818605375,1.695582495781317,-9.0
429,-3,0,-1,-1,-2,-1,1,2,False,2,-3,-0.625,1.5979898086569353,1.620185174601965,-5.0
430,-2,-1,-2,-2,-1,-2,-1,-4,False,-1,-4,-1.875,0.9910312089651149,2.091650066335189,-15.0
431,2,-1,-1,1,-1,0,0,0,False,2,-1,0.0,1.0690449676496976,1.0,0.0
432,2,-2,1,-1,-2,-1,0,0,False,2,-2,-0.375,1.4078859531733587,1.3693063937629153,-3.0
433,-3,0,0,0,0,0,0,3,False,3,-3,0.0,1.6035674514745462,1.5,0.0
434,0,-1,0,-1,0,-1,0,1,False,1,-1,-0.25,0.7071067811865476,0.7071067811865476,-2.0
435,2,2,1,0,-2,0,-1,5,False,5,-2,0.875,2.1671244937540095,2.2079402165819615,7.0
436,-1,0,-1,0,-1,0,-1,-1,False,0,-1,-0.625,0.5175491695067657,0.7905694150420949,-5.0
437,1,0,-1,0,0,-1,0,6,False,6,-1,0.625,2.2638462845343543,2.2079402165819615,5.0
438,0,-1,0,-2,1,0,0,3,False,3,-2,0.125,1.4577379737113252,1.3693063937629153,1.0
439,-3,-3,-2,-2,0,1,-2,-4,False,1,-4,-1.875,1.6420805617960925,2.4238399287081647,-15.0
440,-3,-1,0,0,0,0,-1,-2,False,0,-3,-0.875,1.1259916264596033,1.3693063937629153,-7.0
441,-1,-3,0,0,-1,-2,-1,0,False,0,-3,-1.0,1.0690449676496976,1.4142135623730951,-8.0
442,0,-1,0,-2,-1,-1,-2,-5,False,0,-5,-1.5,1.6035674514745462,2.1213203435596424,-12.0
443,1,0,-1,1,0,-1,1,-1,False,1,-1,0.0,0.9258200997725514,0.8660254037844386,0.0
444,2,1,0,1,-3,1,-2,1,False,2,-3,0.125,1.7268882005337973,1.620185174601965,1.0
445,0,0,0,-2,-1,-2,-1,-1,False,0,-2,-0.875,0.8345229603962802,1.1726039399558574,-7.0
446,-3,-2,-3,0,-2,-1,-2,-4,False,0,-4,-2.125,1.2464234547582247,2.4238399287081647,-17.0
447,-1,-4,-1,-1,-2,0,-1,-4,False,0,-4,-1.75,1.4880476182856899,2.23606797749979,-14.0
448,0,-2,0,0,1,0,0,1,False,1,-2,0.0,0.9258200997725514,0.8660254037844386,0.0
449,2,0,-2,1,0,-1,0,2,False,2,-2,0.25,1.3887301496588271,1.3228756555322954,2.0
450,0,0,0,-1,-1,-1,-1,-5,False,0,-5,-1.125,1.6420805617960925,1.9039432764659772,-9.0
451,-1,1,0,-2,1,1,0,1,False,1,-2,0.125,1.1259916264596033,1.0606601717798212,1.0
452,-2,-1,-2,-1,1,-1,-1,0,False,1,-2,-0.875,0.9910312089651149,1.2747548783981961,-7.0
453,-1,-1,1,0,-3,-1,-1,-4,False,1,-4,-1.25,1.5811388300841898,1.9364916731037085,-10.0
454,-2,2,-1,1,-2,0,1,0,False,2,-2,-0.125,1.4577379737113252,1.3693063937629153,-1.0
455,1,-1,-2,-1,0,1,0,1,False,1,-2,-0.125,1.1259916264596033,1.0606601717798212,-1.0
456,0,0,-1,-1,-1,0,0,2,False,2,-1,-0.125,0.9910312089651149,0.9354143466934853,-1.0
457,-2,-1,-1,-1,-1,0,-1,0,False,0,-2,-0.875,0.6408699444616557,1.0606601717798212,-7.0
458,1,0,-3,-3,-1,-3,0,-6,False,1,-6,-1.875,2.295181287579947,2.850438562747845,-15.0
459,-3,-2,-2,0,0,-2,-1,-1,False,0,-3,-1.375,1.0606601717798212,1.695582495781317,-11.0
460,-1,-1,1,0,0,-1,1,2,False,2,-1,0.125,1.1259916264596033,1.0606601717798212,1.0
461,0,1,0,-1,-1,-1,-2,-2,False,1,-2,-0.75,1.0350983390135313,1.224744871391589,-6.0
462,1,0,-1,-1,0,-1,-4,-6,False,1,-6,-1.5,2.3299294900428698,2.6457513110645907,-12.0
463,-1,-1,-2,-1,-2,-2,-1,-2,False,-1,-2,-1.5,0.5345224838248488,1.5811388300841898,-12.0
464,0,0,0,-1,0,0,-1,1,False,1,-1,-0.125,0.6408699444616557,0.6123724356957945,-1.0
465,0,-3,-2,-2,-1,0,-1,-4,False,0,-4,-1.625,1.4078859531733587,2.091650066335189,-13.0
466,-1,-3,-2,-1,0,1,1,-6,False,1,-6,-1.375,2.326094212561969,2.57390753524675,-11.0
467,1,-3,-2,-2,0,-1,0,-3,False,1,-3,-1.25,1.4880476182856899,1.8708286933869707,-10.0
468,-1,0,1,0,2,0,1,4,False,4,-1,0.875,1.5526475085202969,1.695582495781317,7.0
469,-1,0,-1,-1,-1,1,1,5,False,5,-1,0.375,2.0658792662827956,1.9685019685029528,3.0
470,0,-2,-2,-1,-1,-1,-2,-5,False,0,-5,-1.75,1.4880476182856899,2.23606797749979,-14.0
471,-2,0,0,1,-1,0,-2,0,False,1,-2,-0.5,1.0690449676496976,1.118033988749895,-4.0
472,-1,0,-1,-4,-1,-2,-2,-6,False,0,-6,-2.125,1.9594095320493146,2.806243040080456,-17.0
473,-1,-1,-3,-1,-1,0,-2,-7,False,0,-7,-2.0,2.2038926600773587,2.8722813232690143,-16.0
474,-1,-1,0,0,-1,2,0,-4,False,2,-4,-0.625,1.6850180160122068,1.695582495781317,-5.0
475,0,-2,-1,-1,0,-1,-2,-1,False,0,-2,-1.0,0.7559289460184544,1.224744871391589,-8.0
476,3,0,0,1,-1,1,-1,7,False,7,-1,1.25,2.659215781283755,2.7838821814150108,10.0
477,-1,1,-1,0,0,-1,-2,1,False,1,-2,-0.375,1.0606601717798212,1.0606601717798212,-3.0
478,-2,-1,0,0,0,-1,-1,7,False,7,-2,0.25,2.8157719063467175,2.6457513110645907,2.0
479,-2,-1,-2,-1,-1,-2,-1,1,False,1,-2,-1.125,0.9910312089651149,1.4577379737113252,-9.0
480,-1,0,-2,1,-1,0,-1,5,False,5,-2,0.125,2.1671244937540095,2.03100960115899,1.0
481,-2,-2,1,0,-1,0,-1,-1,False,1,-2,-0.75,1.0350983390135313,1.224744871391589,-6.0
482,0,-3,-1,-2,1,-1,1,1,False,1,-3,-0.5,1.5118578920369088,1.5,-4.0
483,2,1,-3,-2,0,0,0,0,False,2,-3,-0.25,1.5811388300841898,1.5,-2.0
484,0,0,2,0,-1,0,0,6,False,6,-1,0.875,2.2320714274285347,2.2638462845343543,7.0
485,0,-1,0,-1,-2,-1,0,-3,False,0,-3,-1.0,1.0690449676496976,1.4142135623730951,-8.0
486,-3,-2,-2,-1,-1,0,-2,-4,False,0,-4,-1.875,1.2464234547582247,2.2079402165819615,-15.0
487,-2,0,-2,-2,-1,-1,0,1,False,1,-2,-0.875,1.1259916264596033,1.3693063937629153,-7.0
488,-1,0,-2,-1,-1,-2,-1,-4,False,0,-4,-1.5,1.1952286093343936,1.8708286933869707,-12.0
489,0,1,-1,1,-2,1,0,3,False,3,-2,0.375,1.5059406173077154,1.4577379737113252,3.0
490,0,-1,-1,-3,-3,0,0,-7,False,0,-7,-1.875,2.416461403433896,2.9368350311176825,-15.0
491,-1,-1,0,0,0,-1,-1,-3,False,0,-3,-0.875,0.9910312089651149,1.2747548783981961,-7.0
492,1,0,-1,0,-2,-2,-1,-1,False,1,-2,-0.75,1.0350983390135313,1.224744871391589,-6.0
493,-1,-1,-1,-3,0,0,-1,-7,False,0,-7,-1.75,2.3145502494313788,2.7838821814150108,-14.0
494,0,-3,-1,-2,-1,-2,-1,-4,False,0,-4,-1.75,1.2817398889233114,2.1213203435596424,-14.0
495,3,1,0,2,0,-1,-2,9,False,9,-2,1.5,3.4226138716316967,3.5355339059327378,12.0
496,1,0,0,-1,0,-2,-1,-2,False,1,-2,-0.625,1.0606601717798212,1.1726039399558574,-5.0
497,3,1,0,-1,-2,0,1,4,False,4,-2,0.75,1.9820624179302297,2.0,6.0
498,-2,0,0,-2,-2,-2,-1,-1,False,0,-2,-1.25,0.8864052604279183,1.5,-10.0
499,0,0,-1,-1,0,-1,-1,-4,False,0,-4,-1.0,1.3093073414159542,1.5811388300841898,-8.0
500,-2,-2,-3,-2,0,-2,0,0,False,0,-3,-1.375,1.1877349391654206,1.7677669529663689,-11.0
501,-3,0,-1,0,-1,-1,0,-6,False,0,-6,-1.5,2.0701966780270626,2.449489742783178,-12.0
502,-1,0,-1,-1,0,-1,0,-1,False,0,-1,-0.625,0.5175491695067657,0.7905694150420949,-5.0
503,-5,-1,0,0,-2,2,-1,-2,False,2,-5,-1.125,2.03100960115899,2.2079402165819615,-9.0
504,0,1,1,0,1,0,1,3,False,3,0,0.875,0.9910312089651149,1.2747548783981961,7.0
505,3,-2,0,-1,0,-1,0,0,False,3,-2,-0.125,1.4577379737113252,1.3693063937629153,-1.0
506,0,0,-1,0,0,0,-2,3,False,3,-2,0.0,1.4142135623730951,1.3228756555322954,0.0
507,-1,-1,-1,-1,-2,-1,-1,2,False,2,-2,-0.75,1.1649647450214349,1.3228756555322954,-6.0
508,0,0,-1,-2,-1,-1,-1,-4,False,0,-4,-1.25,1.2817398889233114,1.7320508075688772,-10.0
509,0,-3,-2,0,-2,1,-2,-1,False,1,-3,-1.125,1.3562026818605375,1.695582495781317,-9.0
510,-2,1,-1,0,-3,0,1,3,False,3,-3,-0.125,1.8850918886280925,1.7677669529663689,-1.0
511,-3,-2,-1,-1,-2,0,0,-5,False,0,-5,-1.75,1.6690459207925603,2.345207879911715,-14.0
512,-3,0,-2,-2,-2,-3,-2,-4,False,0,-4,-2.25,1.1649647450214349,2.5,-18.0
513,-1,-2,-1,1,-1,0,-2,1,False,1,-2,-0.625,1.1877349391654206,1.2747548783981961,-5.0
514,0,2,-1,-1,0,-1,0,0,False,2,-1,-0.125,0.9910312089651149,0.9354143466934853,-1.0
515,-2,0,-1,-2,-1,-2,-3,0,False,0,-3,-1.375,1.0606601717798212,1.695582495781317,-11.0
516,1,-1,0,-2,0,-1,-2,-2,False,1,-2,-0.875,1.1259916264596033,1.3693063937629153,-7.0
517,-1,-2,-2,-1,0,0,-2,1,False,1,-2,-0.875,1.1259916264596033,1.3693063937629153,-7.0
518,-3,-2,-2,0,0,1,0,-1,False,1,-3,-0.875,1.3562026818605375,1.541103500742244,-7.0
519,-1,-2,0,0,-1,0,0,-2,False,0,-2,-0.75,0.8864052604279183,1.118033988749895,-6.0
520,2,1,-2,-1,-1,-2,0,0,False,2,-2,-0.375,1.4078859531733587,1.3693063937629153,-3.0
521,1,0,-1,1,1,-1,0,3,False,3,-1,0.5,1.3093073414159542,1.3228756555322954,4.0
522,0,0,0,-1,0,-2,0,1,False,1,-2,-0.25,0.8864052604279183,0.8660254037844386,-2.0
523,-1,-3,-1,-1,0,-1,-1,-4,False,0,-4,-1.5,1.3093073414159542,1.9364916731037085,-12.0
524,3,-2,-1,0,-1,-2,1,1,False,3,-2,-0.125,1.7268882005337973,1.620185174601965,-1.0
525,0,1,-1,0,-1,0,1,2,False,2,-1,0.25,1.0350983390135313,1.0,2.0
526,0,-1,0,-1,1,-1,-1,-8,False,1,-8,-1.375,2.774243783705493,2.9368350311176825,-11.0
527,3,-1,-1,-2,-2,-1,-1,-4,False,3,-4,-1.125,1.9594095320493146,2.1505813167606567,-9.0
528,-3,0,-1,-2,0,1,0,2,False,2,-3,-0.375,1.5979898086569353,1.541103500742244,-3.0
529,-2,-2,0,-2,0,-1,-1,-6,False,0,-6,-1.75,1.9086270308410553,2.5,-14.0
530,-1,-1,-2,-1,-1,0,-1,0,False,0,-2,-0.875,0.6408699444616557,1.0606601717798212,-7.0
531,-2,-1,-1,0,-1,0,0,2,False,2,-2,-0.375,1.1877349391654206,1.1726039399558574,-3.0
532,1,-1,-1,-3,-1,1,0,0,False,1,-3,-0.5,1.3093073414159542,1.3228756555322954,-4.0
533,4,-2,-1,-1,-1,0,-1,-5,False,4,-5,-0.875,2.4748737341529163,2.4748737341529163,-7.0
534,-2,0,-1,-1,-2,0,-1,5,False,5,-2,-0.25,2.2519832529192065,2.1213203435596424,-2.0
535,-1,0,-2,-1,0,-3,-1,1,False,1,-3,-0.875,1.2464234547582247,1.4577379737113252,-7.0
536,-2,-1,-1,1,-1,-1,-1,-2,False,1,-2,-1.0,0.9258200997725514,1.3228756555322954,-8.0
537,-1,0,0,0,-2,-1,0,-1,False,0,-2,-0.625,0.7440238091428449,0.9354143466934853,-5.0
538,-1,0,-1,0,0,1,-1,-3,False,1,-3,-0.625,1.1877349391654206,1.2747548783981961,-5.0
539,-1,1,2,2,0,0,-1,4,False,4,-1,0.875,1.7268882005337973,1.8371173070873836,7.0
540,-2,-1,-2,-1,-1,-3,-2,-5,False,-1,-5,-2.125,1.3562026818605375,2.4748737341529163,-17.0
541,0,-3,-1,-1,0,0,0,1,False,1,-3,-0.5,1.1952286093343936,1.224744871391589,-4.0
542,-1,-1,-1,1,-1,-1,-1,0,False,1,-1,-0.625,0.7440238091428449,0.9354143466934853,-5.0
543,-1,-1,-1,-1,0,0,-1,-3,False,0,-3,-1.0,0.9258200997725514,1.3228756555322954,-8.0
544,-1,-1,-1,0,1,0,0,2,False,2,-1,0.0,1.0690449676496976,1.0,0.0
545,-1,0,1,0,0,0,0,3,False,3,-1,0.375,1.1877349391654206,1.1726039399558574,3.0
546,0,0,-1,-2,-1,-2,-1,-2,False,0,-2,-1.125,0.8345229603962802,1.3693063937629153,-9.0
547,-1,-3,0,-1,-2,-1,-2,-2,False,0,-3,-1.5,0.9258200997725514,1.7320508075688772,-12.0
548,1,0,0,-2,-2,0,0,1,False,1,-2,-0.25,1.1649647450214349,1.118033988749895,-2.0
549,-2,-1,-1,-1,-1,0,0,-4,False,0,-4,-1.25,1.2817398889233114,1.7320508075688772,-10.0
550,0,-2,-1,-3,-1,1,-3,-5,False,1,-5,-1.75,1.9086270308410553,2.5,-14.0
551,0,-1,-1,-1,-2,0,-1,-5,False,0,-5,-1.375,1.5979898086569353,2.03100960115899,-11.0
552,-4,-2,-1,0,0,-1,-2,-2,False,0,-4,-1.5,1.3093073414159542,1.9364916731037085,-12.0
553,0,0,-1,-1,-1,-2,-2,0,False,0,-2,-0.875,0.8345229603962802,1.1726039399558574,-7.0
554,0,-2,-2,-2,-2,-1,-1,-3,False,0,-3,-1.625,0.9161253813129042,1.8371173070873836,-13.0
555,-1,-2,-2,0,1,-3,0,1,False,1,-3,-0.75,1.4880476182856899,1.5811388300841898,-6.0
556,-2,-2,0,1,0,-3,-2,-9,False,1,-9,-2.125,3.090885217631258,3.588175023601831,-17.0
557,-1,1,0,-1,-1,0,-2,3,False,3,-2,-0.125,1.5526475085202969,1.4577379737113252,-1.0
558,2,-1,-2,0,-1,0,0,-2,False,2,-2,-0.5,1.3093073414159542,1.3228756555322954,-4.0
559,-3,1,-2,0,0,0,-2,-1,False,1,-3,-0.875,1.3562026818605375,1.541103500742244,-7.0
560,-3,-2,0,-1,0,1,0,3,False,3,-3,-0.25,1.8322507626258084,1.7320508075688772,-2.0
561,0,1,0,0,0,-2,-2,-1,False,1,-2,-0.5,1.0690449676496976,1.118033988749895,-4.0
562,3,-1,0,-2,-1,-3,-1,3,False,3,-3,-0.25,2.187627547301936,2.0615528128088303,-2.0
563,1,-1,0,-2,-2,-1,0,-2,False,1,-2,-0.875,1.1259916264596033,1.3693063937629153,-7.0
564,-2,-1,0,0,0,0,-1,6,False,6,-2,0.25,2.434865792722759,2.29128784747792,2.0
565,0,-3,-2,-2,0,0,-2,-4,False,0,-4,-1.625,1.5059406173077154,2.1505813167606567,-13.0
566,0,1,-2,-1,-1,-2,-2,3,False,3,-2,-0.5,1.7728105208558367,1.7320508075688772,-4.0
567,-4,-2,0,-1,-1,-1,-2,0,False,0,-4,-1.375,1.3024701806293193,1.8371173070873836,-11.0
568,-1,-1,-2,-1,0,0,-1,3,False,3,-2,-0.375,1.5059406173077154,1.4577379737113252,-3.0
569,-1,-1,1,1,0,-1,1,4,False,4,-1,0.5,1.6903085094570331,1.6583123951777,4.0
570,0,1,-1,-1,-1,0,-2,-3,False,1,-3,-0.875,1.2464234547582247,1.4577379737113252,-7.0
571,-1,-1,0,-1,0,0,-2,-3,False,0,-3,-1.0,1.0690449676496976,1.4142135623730951,-8.0
572,1,-1,0,0,0,0,-1,1,False,1,-1,0.0,0.7559289460184544,0.7071067811865476,0.0
573,4,0,-2,0,0,-2,0,4,False,4,-2,0.5,2.3299294900428698,2.23606797749979,4.0
574,-1,-2,-2,1,0,-1,-2,4,False,4,-2,-0.375,2.0658792662827956,1.9685019685029528,-3.0
575,-1,1,0,-2,-3,-1,0,-2,False,1,-3,-1.0,1.3093073414159542,1.5811388300841898,-8.0
576,-2,-1,-3,-1,-2,-1,-1,-1,False,-1,-3,-1.5,0.7559289460184544,1.6583123951777,-12.0
577,-1,-1,0,-1,-1,0,0,-2,False,0,-2,-0.75,0.7071067811865476,1.0,-6.0
578,0,2,0,-1,0,-2,0,1,False,2,-2,0.0,1.1952286093343936,1.118033988749895,0.0
579,-2,-3,-2,-1,-2,-1,-1,-6,False,-1,-6,-2.25,1.6690459207925603,2.7386127875258306,-18.0
580,-2,0,1,-4,0,-1,-2,0,False,1,-4,-1.0,1.6035674514745462,1.8027756377319946,-8.0
581,-2,0,-1,0,-1,0,-2,2,False,2,-2,-0.5,1.3093073414159542,1.3228756555322954,-4.0
582,3,1,0,-1,-1,-1,0,3,False,3,-1,0.5,1.6903085094570331,1.6583123951777,4.0
583,0,0,-1,-2,-1,-1,0,1,False,1,-2,-0.5,0.9258200997725514,1.0,-4.0
584,-1,0,-2,0,-1,0,0,-1,False,0,-2,-0.625,0.7440238091428449,0.9354143466934853,-5.0
585,-2,0,-1,-2,0,0,-2,-5,False,0,-5,-1.5,1.6903085094570331,2.179449471770337,-12.0
586,0,-2,-1,-1,0,-2,-2,-13,False,0,-13,-2.625,4.274091382136927,4.782781617427248,-21.0
587,-1,0,0,-1,-2,0,-1,2,False,2,-2,-0.375,1.1877349391654206,1.1726039399558574,-3.0
588,-1,-1,-1,-1,-1,-1,0,2,False,2,-1,-0.5,1.0690449676496976,1.118033988749895,-4.0
589,-1,-1,0,-1,-1,-1,-1,0,False,0,-1,-0.75,0.4629100498862757,0.8660254037844386,-6.0
590,0,0,1,-1,-2,-1,-3,-3,False,1,-3,-1.125,1.4577379737113252,1.7677669529663689,-9.0
591,-1,0,-1,-1,-1,-1,0,-1,False,0,-1,-0.75,0.4629100498862757,0.8660254037844386,-6.0
592,-2,-1,-1,-2,0,0,-1,-3,False,0,-3,-1.25,1.0350983390135313,1.5811388300841898,-10.0
593,-4,-1,-3,-1,1,1,1,2,False,2,-4,-0.5,2.138089935299395,2.0615528128088303,-4.0
594,0,-1,-2,0,-3,-1,1,2,False,2,-3,-0.5,1.6035674514745462,1.5811388300841898,-4.0
595,1,-1,0,-1,-1,0,0,1,False,1,-1,-0.125,0.8345229603962802,0.7905694150420949,-1.0
596,-1,0,-2,1,-1,1,-1,-1,False,1,-2,-0.5,1.0690449676496976,1.118033988749895,-4.0
597,-2,-1,-1,1,-1,-1,-3,0,False,1,-3,-1.0,1.1952286093343936,1.5,-8.0
598,0,-1,-1,-2,-1,-2,-1,0,False,0,-2,-1.0,0.7559289460184544,1.224744871391589,-8.0
599,-3,-1,0,-1,0,-2,-1,-4,False,0,-4,-1.5,1.4142135623730951,2.0,-12.0
600,-1,-1,-1,-1,-1,-1,-1,2,False,2,-1,-0.625,1.0606601717798212,1.1726039399558574,-5.0
601,2,-1,-1,-1,0,0,-2,-1,False,2,-2,-0.5,1.1952286093343936,1.224744871391589,-4.0
602,-2,-3,0,0,-1,0,-1,-1,False,0,-3,-1.0,1.0690449676496976,1.4142135623730951,-8.0
603,0,0,0,2,0,0,-3,-2,False,2,-3,-0.375,1.5059406173077154,1.4577379737113252,-3.0
604,0,0,0,0,0,0,-1,2,False,2,-1,0.125,0.8345229603962802,0.7905694150420949,1.0
605,-3,1,-2,-1,-1,-1,-3,-12,False,1,-12,-2.75,3.955105199973465,4.6097722286464435,-22.0
606,0,-3,-1,-1,0,-1,0,2,False,2,-3,-0.5,1.4142135623730951,1.4142135623730951,-4.0
607,-1,-1,-1,-1,0,-1,-1,1,False,1,-1,-0.625,0.7440238091428449,0.9354143466934853,-5.0
608,-3,-1,-1,-3,-1,-3,-1,-4,False,-1,-4,-2.125,1.2464234547582247,2.4238399287081647,-17.0
609,2,0,0,0,-1,-1,0,1,False,2,-1,0.125,0.9910312089651149,0.9354143466934853,1.0
610,-4,-1,-2,-2,0,0,-1,1,False,1,-4,-1.125,1.5526475085202969,1.8371173070873836,-9.0
611,-2,2,1,-2,-1,0,0,5,False,5,-2,0.375,2.326094212561969,2.2079402165819615,3.0
612,1,0,-1,-1,0,-2,-1,1,False,1,-2,-0.375,1.0606601717798212,1.0606601717798212,-3.0
613,-2,-3,-3,-2,0,-2,-1,0,False,0,-3,-1.625,1.1877349391654206,1.9685019685029528,-13.0
614,-1,-3,-1,1,0,0,-1,-3,False,1,-3,-1.0,1.4142135623730951,1.6583123951777,-8.0
615,-2,-2,-2,0,-1,-1,-1,1,False,1,-2,-1.0,1.0690449676496976,1.4142135623730951,-8.0
616,1,-1,0,0,-1,-2,1,1,False,1,-2,-0.125,1.1259916264596033,1.0606601717798212,-1.0
617,1,0,-2,0,-2,1,0,-1,False,1,-2,-0.375,1.1877349391654206,1.1726039399558574,-3.0
618,0,-2,0,-4,-1,0,-1,4,False,4,-4,-0.5,2.2677868380553634,2.179449471770337,-4.0
619,2,-2,-1,0,-1,0,1,1,False,2,-2,0.0,1.3093073414159542,1.224744871391589,0.0
620,1,-1,-4,1,-1,0,-1,-1,False,1,-4,-0.75,1.5811388300841898,1.6583123951777,-6.0
621,0,-2,0,0,1,-1,-1,0,False,1,-2,-0.375,0.9161253813129042,0.9354143466934853,-3.0
622,1,-1,0,-3,-1,-3,0,-5,False,1,-5,-1.5,2.0,2.3979157616563596,-12.0
623,-2,0,1,-1,0,-2,-1,-1,False,1,-2,-0.75,1.0350983390135313,1.224744871391589,-6.0
624,-2,-1,-1,-3,0,-3,-2,-3,False,0,-3,-1.875,1.1259916264596033,2.1505813167606567,-15.0
625,-3,-1,0,-1,0,0,-3,-5,False,0,-5,-1.625,1.8468119248354136,2.3717082451262845,-13.0
626,-1,-1,-1,0,-1,-1,0,-1,False,0,-1,-0.75,0.4629100498862757,0.8660254037844386,-6.0
627,-1,0,-2,0,1,-2,0,-5,False,1,-5,-1.125,1.8850918886280925,2.091650066335189,-9.0
628,3,-2,-1,-1,-1,0,0,2,False,3,-2,0.0,1.6903085094570331,1.5811388300841898,0.0
629,1,0,-2,-2,-1,0,-1,-2,False,1,-2,-0.875,1.1259916264596033,1.3693063937629153,-7.0
630,-2,-1,-1,0,-1,-1,-1,-5,False,0,-5,-1.5,1.5118578920369088,2.0615528128088303,-12.0
631,1,1,-1,0,-1,-2,-1,-1,False,1,-2,-0.5,1.0690449676496976,1.118033988749895,-4.0
632,-1,-2,0,-1,0,0,-1,0,False,0,-2,-0.625,0.7440238091428449,0.9354143466934853,-5.0
633,0,0,-1,-1,-1,0,-2,1,False,1,-2,-0.5,0.9258200997725514,1.0,-4.0
634,-1,0,-2,1,0,1,-1,2,False,2,-2,0.0,1.3093073414159542,1.224744871391589,0.0
635,-2,0,-2,-9,-1,0,0,0,False,0,-9,-1.75,3.0589447293376937,3.3541019662496847,-14.0
636,-1,-1,1,1,-1,0,-1,2,False,2,-1,0.0,1.1952286093343936,1.118033988749895,0.0
637,-1,-3,2,2,-1,0,0,0,False,2,-3,-0.125,1.6420805617960925,1.541103500742244,-1.0
638,-2,-1,1,-4,1,0,0,-13,False,1,-13,-2.25,4.652188425123938,4.898979485566356,-18.0
639,-1,-3,-4,6,-1,1,0,1,False,6,-4,-0.125,3.044315545875155,2.850438562747845,-1.0
640,2,7,10,-1,-2,-1,0,-1,False,10,-2,1.75,4.399675312695569,4.47213595499958,14.0
641,-2,0,1,8,0,0,-1,-2,False,8,-2,0.5,3.2071349029490923,3.0413812651491097,4.0
642,2,-8,-24,-6,-3,-2,-1,1,False,2,-24,-5.125,8.322731351116479,9.320675941153624,-41.0
643,3,1,19,19,2,1,-1,-2,False,19,-2,5.25,8.631338250816034,9.630680142129112,42.0
644,-3,-3,2,-2,-2,-1,-1,0,False,2,-3,-1.25,1.6690459207925603,2.0,-10.0
645,1,6,38,12,2,0,-1,-6,False,38,-6,6.5,13.773680906507371,14.430869689661812,52.0
646,-5,-12,-15,-16,-5,-2,-1,-1,False,-1,-16,-7.125,6.266407036161723,9.226321043622967,-57.0
647,-2,4,-19,-18,-4,-2,-4,0,False,4,-19,-5.625,8.348438690643214,9.624188277460078,-45.0
648,-1,5,24,20,8,1,-2,0,False,24,-2,6.875,9.948976975405202,11.570436465406134,55.0
649,2,-13,-30,-16,-4,-2,-1,-1,False,2,-30,-8.125,10.842212478482951,12.995191418367027,-65.0
650,-1,18,11,-3,0,-1,1,2,False,18,-3,3.375,7.269063606427289,7.591113225344488,27.0
651,2,11,27,-7,-2,-1,2,2,False,27,-7,4.25,10.49829918197637,10.700467279516348,34.0
652,-3,-13,-48,-18,-4,-2,-2,3,False,3,-48,-10.875,16.444169613748038,18.838126233784507,-87.0
653,5,-15,-3,7,-2,-2,-1,-3,False,7,-15,-1.75,6.562882641905809,6.383572667401852,-14.0
654,-5,2,-10,-52,-2,-1,-1,-1,False,2,-52,-8.75,17.838561761372066,18.841443681416774,-70.0
655,7,2,28,20,5,2,-1,-1,False,28,-1,7.75,10.606601717798213,12.589678312014172,62.0
656,-3,-7,-24,5,0,-1,2,3,False,5,-24,-3.125,9.21857596688029,9.17196816392207,-25.0
657,-10,-8,-24,-18,-6,-2,-2,2,False,2,-24,-8.5,8.734169352933012,11.789826122551595,-68.0
658,-10,-2,-12,-5,-3,-1,-2,-1,False,-1,-12,-4.5,4.242640687119285,6.0,-36.0
659,-1,5,12,4,1,1,-2,-1,False,12,-2,2.375,4.596194077712559,4.911720676097125,19.0
660,7,2,-4,8,6,2,0,5,False,8,-4,3.25,4.026696625558686,4.9749371855331,26.0
661,-1,1,-2,13,-1,0,0,2,False,13,-2,1.5,4.810702354423639,4.743416490252569,12.0
662,-2,-17,-45,-1,-7,-2,-1,-4,False,-1,-45,-9.875,15.16045136908152,17.280769658785456,-79.0
663,-3,7,-7,-4,5,3,1,-2,False,7,-7,0.0,4.810702354423639,4.5,0.0
664,-11,5,14,9,-2,-2,-1,-1,False,14,-11,1.375,7.726346392146069,7.3569694847810805,11.0
665,2,-1,30,-12,-6,-2,-1,1,False,30,-12,1.375,12.397436370936878,11.677970714126662,11.0
666,15,-3,-2,-14,-3,0,-1,-1,False,15,-14,-1.125,7.881941385217223,7.458216945088149,-9.0
667,1,-11,-26,0,-1,-3,-2,0,False,1,-26,-5.25,9.192388155425117,10.074720839804943,-42.0
668,0,0,22,15,2,1,1,-2,False,22,-2,4.875,8.692155741159464,9.48024261292927,39.0
669,3,-7,-27,-13,-4,-3,-1,-1,False,3,-27,-6.625,9.500939803138273,11.084899638697681,-53.0
670,6,-6,-31,-21,-5,-4,-3,1,False,6,-31,-7.875,12.123619214456665,13.806701271484076,-63.0
671,-2,-1,32,16,-3,-1,-1,-1,False,32,-3,4.875,12.574776339959291,12.732831578246843,39.0
672,-1,-1,6,0,-1,1,0,-4,False,6,-4,0.0,2.8284271247461903,2.6457513110645907,0.0
673,4,6,5,1,5,2,-2,2,False,6,-2,2.875,2.6423744732991303,3.7914377220257753,23.0
674,2,5,0,-20,-6,-3,-3,0,False,5,-20,-3.125,7.605214376615935,7.770135133960027,-25.0
675,-9,1,30,27,-2,-1,-1,-3,False,30,-9,5.25,14.665313790418143,14.688430821568382,42.0
676,0,5,-5,-4,0,-2,1,7,False,7,-5,0.25,4.131758532565591,3.872983346207417,2.0
677,-2,-6,-20,-18,-5,0,1,0,False,1,-20,-6.25,8.259194011178433,9.937303457175895,-50.0
678,2,-3,7,34,-3,-3,-1,-10,False,34,-10,2.875,13.474181660812334,12.927683473847896,23.0
679,-2,-2,-6,4,3,1,-2,-1,False,4,-6,-0.625,3.2043497223082786,3.0618621784789726,-5.0
680,-5,0,-8,-15,-4,-1,-1,1,False,1,-15,-4.125,5.303300858899107,6.45174395028197,-33.0
681,0,-3,21,-5,-4,-4,-4,-1,False,21,-5,0.0,8.652002245558126,8.093207028119323,0.0
682,-4,6,-12,-8,1,1,-1,0,False,6,-12,-2.125,5.693040864574423,5.733672470589857,-17.0
683,-4,-4,-33,-10,2,0,-1,-7,False,2,-33,-7.125,11.141139977578597,12.624381172952598,-57.0
684,-2,-5,9,11,0,-1,-1,0,False,11,-5,1.375,5.578978401105349,5.3967582862307255,11.0
685,4,-8,-3,8,3,0,-1,0,False,8,-8,0.375,4.808846015417836,4.513867521316947,3.0
686,-4,-13,-24,-15,-4,-2,0,-5,False,0,-24,-8.375,8.19298480408697,11.352312539742728,-67.0
687,-6,3,-4,4,-5,-4,-2,-1,False,4,-6,-1.875,3.6815175442433286,3.9210967853395307,-15.0
688,19,-15,-4,-13,24,3,1,6,False,24,-15,2.625,13.824796562698491,13.195643220396647,21.0
689,37,4,-2,-10,-55,-22,-2,-1,False,37,-55,-6.375,25.85087729928826,25.007498875337372,-51.0
690,-31,30,9,18,80,58,-13,-7,False,80,-31,18.0,37.140659275631755,39.1279950930277,144.0
691,-10,14,-5,-7,-1,17,19,3,False,19,-10,3.75,11.448643088655903,11.346805717910216,30.0
692,-43,-2,4,5,-24,-19,3,-5,False,5,-43,-10.125,17.09166463513721,18.92419086777556,-81.0
693,-9,-1,-6,-7,-16,-17,-4,14,False,14,-17,-5.75,9.70640436589604,10.747092630102339,-46.0
694,7,6,5,5,-9,-5,3,-2,False,7,-9,1.25,5.873670062235365,5.634713834792322,10.0
695,-28,-2,-7,1,7,1,0,-13,False,7,-28,-5.125,10.999188281738924,11.49456393257265,-41.0
696,18,-40,-24,-11,-11,-3,-2,2,False,18,-40,-8.875,17.439180026595288,18.570810429273138,-71.0
697,51,20,-5,-11,-22,-20,1,-6,False,51,-22,1.0,24.08318915758459,22.54994456755936,8.0
698,29,6,-9,0,17,4,-5,5,False,29,-9,5.875,12.170661444638085,12.811127975318957,47.0
699,18,25,22,2,-29,-19,-2,-2,False,25,-29,1.875,19.3423111338847,18.189969763581246,15.0
700,14,-14,-2,2,16,9,-2,0,False,16,-14,2.875,9.818895777311942,9.624188277460078,23.0
701,5,-14,-8,-4,-14,-6,4,4,False,5,-14,-4.125,7.827378689117905,8.403868156985805,-33.0
702,-7,8,-2,-7,12,6,-5,-5,False,12,-7,0.0,7.521398046336104,7.035623639735144,0.0
703,31,5,-3,-1,-5,-3,-4,-4,False,31,-5,2.0,12.13024555163073,11.521718621802913,16.0
704,-1,1,4,3,-4,-4,-1,-3,False,4,-4,-0.625,3.0676887530703443,2.9368350311176825,-5.0
705,-14,3,0,-4,-7,-4,0,-2,False,3,-14,-3.5,5.237229365663817,6.020797289396148,-28.0
706,-13,-8,18,15,2,0,-2,-2,False,18,-13,1.25,10.566118357412865,9.962429422585638,10.0
707,-12,1,-9,-5,-4,-1,0,1,False,1,-12,-3.625,4.838461975226661,5.798706752371601,-29.0
708,-12,21,-4,-2,2,-1,-3,9,False,21,-12,1.25,9.910312089651148,9.354143466934854,10.0
709,14,-26,-13,-1,-4,-5,-1,-7,False,14,-26,-5.375,11.350739434692601,11.900630235411905,-43.0
710,18,-1,4,-1,-2,-1,0,-3,False,18,-3,1.75,6.881652625434014,6.670832032063167,14.0
711,-8,-31,-7,-7,-4,-6,-1,2,False,2,-31,-7.75,9.996427933445597,12.144957801491119,-62.0
712,15,34,25,12,10,2,0,-1,False,34,-1,12.125,12.414709017935136,16.789133390380815,97.0
713,-12,-7,17,-3,1,-6,-9,-9,False,17,-12,-3.5,9.19627253681776,9.287087810503355,-28.0
714,-10,-22,-11,-3,-4,-6,-3,-7,False,-3,-22,-8.25,6.318905872741849,10.14889156509222,-66.0
715,1,16,6,11,7,8,3,6,False,16,1,7.25,4.652188425123938,8.455767262643882,58.0
716,-9,-4,-4,0,2,2,-2,2,False,2,-9,-1.625,3.9256482631170977,4.0155946010522525,-13.0
717,1,17,11,3,-4,-5,0,-1,False,17,-5,2.75,7.573449864965296,7.599342076785332,22.0
718,2,18,18,4,12,15,0,1,False,18,0,8.75,7.796519369931321,11.390785749894517,70.0
719,-13,7,-24,-8,-13,-7,0,-2,False,7,-24,-7.5,9.486832980505138,11.61895003862225,-60.0
720,-12,14,-35,-6,13,30,7,6,False,30,-35,2.125,19.708138275486963,18.557343559895635,17.0
721,15,68,30,8,0,35,2,-24,False,68,-24,16.75,27.706368530409343,30.858548248418945,134.0
722,-22,-34,-2,-33,-52,-54,-36,-37,False,-2,-54,-33.75,16.49891771342247,37.11131902802701,-270.0
723,87,82,4,23,39,88,56,119,False,119,4,62.25,38.544037893594606,71.93747284969079,498.0
724,41,19,-23,-23,-52,-76,-30,-9,False,41,-76,-19.125,37.10000962649086,39.624802838626216,-153.0
725,-31,-70,49,44,66,57,35,-32,False,66,-70,14.75,51.14614913586917,50.064957804835906,118.0
726,-15,-100,39,-20,-61,-37,-34,-48,False,39,-100,-34.5,39.95354445209729,50.86255990411808,-276.0
727,-53,-35,-22,9,16,-79,-17,-20,False,16,-79,-25.125,31.018139853962875,38.381310556050586,-201.0
728,-30,58,49,51,90,95,59,9,False,95,-30,47.625,41.07114906737192,61.18925559279178,381.0
729,-61,-55,-18,-33,-77,-63,-19,-18,False,-18,-77,-43.0,23.754698783308413,48.40196277011915,-344.0
730,76,40,-9,-19,-19,46,-15,20,False,76,-19,15.0,36.0951124510943,36.945906403822335,120.0
731,-4,-18,-24,18,68,104,34,-15,False,104,-24,20.375,45.88786798895138,47.51447147975025,163.0
732,10,-16,-22,-2,0,-15,21,41,False,41,-22,2.125,21.229612068321657,19.971855196751253,17.0
733,-56,-8,4,-13,-57,-128,-43,-16,False,4,-128,-39.625,42.362171467343025,56.03904888557621,-317.0
734,18,13,-12,37,127,57,36,7,False,127,-12,35.375,42.62439777538547,53.30220445722672,283.0
735,-2,28,13,-34,-57,-52,-31,8,False,28,-57,-15.875,31.791452130587373,33.71016167270635,-127.0
736,-61,-30,-11,13,90,-3,15,8,False,90,-61,2.625,43.51333949820117,40.7875593778299,21.0
737,36,-20,-14,5,22,51,27,-2,False,51,-20,13.125,24.9481605391202,26.774521470980577,105.0
738,-9,-47,46,1,-47,50,-14,-18,False,50,-47,-4.75,36.75303680358555,34.70590727815655,-38.0
739,63,12,-1,-7,-36,15,-38,-28,False,63,-38,-2.5,33.513323576495026,31.448370387032774,-20.0
740,-2,-53,-73,5,16,59,0,11,False,59,-73,-4.625,41.151071848564456,38.77015604817706,-37.0
741,18,8,-6,-9,-22,36,2,38,False,38,-22,8.125,21.39717938687914,21.60150457722795,65.0
742,-22,-23,8,14,24,3,-7,-36,False,24,-36,-4.875,20.746342190509495,20.00937280376374,-39.0
743,-14,-20,-21,-7,-27,40,5,20,False,40,-27,-3.0,23.200985200756328,21.908902300206645,-24.0
744,-9,-3,-13,-5,24,-120,-18,-13,False,24,-120,-19.625,42.54724265029236,44.37482394331272,-157.0
745,14,-28,3,-12,-46,-128,-6,-20,False,14,-128,-27.875,44.48575213320713,50.0861757374228,-223.0
746,2,-24,13,9,11,59,-12,-15,False,59,-24,5.375,25.55071986685083,24.497448846767696,43.0
747,-7,-54,-22,-9,-9,-14,1,12,False,12,-54,-12.75,19.462417996891194,22.22611077089287,-102.0
748,-8,20,20,4,3,33,3,3,False,33,-8,9.75,13.285330255586423,15.795568998931314,78.0
749,-9,44,1,-19,-65,-62,-16,-12,False,44,-65,-17.25,34.77992031536095,36.823905279043935,-138.0
750,-1,9,-15,9,19,52,1,-19,False,52,-19,6.875,22.158116861708777,21.837467801922458,55.0
751,-7,41,15,12,46,-19,1,8,False,46,-19,12.125,22.248194148225668,24.085784189019048,97.0
752,1,18,-5,-6,-13,-25,6,14,False,18,-25,-1.25,14.139610016848817,13.285330255586423,-10.0
753,-4,-3,-4,1,-1,6,-15,2,False,6,-15,-2.25,6.181770435262516,6.2048368229954285,-18.0
754,5,1,-14,-11,-14,-39,-7,-16,False,5,-39,-11.875,13.292720886689397,17.1937488640494,-95.0
755,-2,-2,12,7,8,75,11,9,False,75,-2,14.75,24.932766736623055,27.595289453093258,118.0
756,-6,-6,-9,-16,-34,-41,-6,15,False,15,-41,-12.875,17.65088018849404,20.937406716210106,-103.0
757,-3,14,-7,-3,27,-1,0,-3,False,27,-7,3.0,11.526367287968176,11.191514642799696,24.0
758,7,1,-4,-2,21,19,8,-2,False,21,-4,6.0,9.651054716602593,10.8397416943394,48.0
759,7,9,5,-5,-17,-10,0,4,False,9,-17,-0.875,9.093757670590776,8.551315688243536,-7.0
760,1,1,-2,4,31,33,1,13,False,33,-2,10.25,14.149709739577194,16.740669042783207,82.0
761,1,15,-3,-4,-17,-29,-8,-33,False,15,-33,-9.75,15.917196450918825,17.797471730557685,-78.0
762,-15,7,-7,8,0,6,2,10,False,10,-15,1.375,8.551315688243536,8.116341540373963,11.0
763,-22,3,-1,-5,3,1,-3,-5,False,3,-22,-3.625,8.087689057185266,8.388980867781259,-29.0
764,-14,-10,2,-3,-15,-8,0,-6,False,2,-15,-6.75,6.2048368229954285,8.902246907382429,-54.0
765,22,12,1,1,-19,11,3,3,False,22,-19,4.25,11.865315599920395,11.884864324004713,34.0
766,5,1,2,-2,-5,-6,0,4,False,5,-6,-0.125,3.9798600118956085,3.724916106437835,-1.0
767,-12,-3,-6,-10,-29,-5,-1,-4,False,-1,-29,-8.75,8.940278039779939,12.103718436910205,-70.0
768,7,1,0,1,1,4,-1,-4,False,7,-4,1.125,3.2705394924123103,3.2596012026013246,9.0
769,5,0,2,4,-3,-7,0,-3,False,5,-7,-0.25,3.9910614413425693,3.7416573867739413,-2.0
770,7,-3,0,0,10,4,1,0,False,10,-3,2.375,4.307385683749649,4.677071733467427,19.0
771,1,11,4,1,0,-9,-2,8,False,11,-9,1.75,6.1353775061406886,6.0,14.0
772,5,-10,-12,-6,-14,-2,-1,-3,False,5,-14,-5.375,6.368168608679533,8.023403267940607,-43.0
773,-1,3,13,1,3,3,2,3,False,13,-1,3.375,4.138236339311712,5.135659646043535,27.0
774,7,0,6,1,-4,-5,0,-1,False,7,-5,0.5,4.242640687119285,4.0,4.0
775,0,0,-5,-1,-1,-1,0,2,False,2,-5,-0.75,1.9820624179302297,2.0,-6.0
776,1,-2,-4,-5,-7,-4,-1,-5,False,1,-7,-3.375,2.5599944196367748,4.138236339311712,-27.0
777,-1,4,-1,-1,5,-1,-1,-6,False,5,-6,-0.25,3.4121631178560534,3.2015621187164243,-2.0
778,-3,-1,-2,1,-23,1,-2,-2,False,1,-23,-3.875,7.863795884576716,8.314144574157945,-31.0
779,4,1,-2,0,-8,-3,-3,-1,False,4,-8,-1.5,3.505098327538656,3.605551275463989,-12.0
780,-2,2,2,2,5,3,1,-15,False,5,-15,-0.25,6.273527146441853,5.873670062235365,-2.0
781,-3,-2,-4,-2,-3,-1,-1,-4,False,-1,-4,-2.5,1.1952286093343936,2.7386127875258306,-20.0
782,-5,-1,2,-9,-29,-2,0,3,False,3,-29,-5.125,10.384569596968653,10.982941318244398,-41.0
783,2,1,-2,-4,-1,-2,0,2,False,2,-4,-0.5,2.138089935299395,2.0615528128088303,-4.0
784,3,0,1,-2,3,0,-1,3,False,3,-2,0.875,1.9594095320493146,2.03100960115899,7.0
785,-8,0,-5,-1,-3,-1,1,-1,False,1,-8,-2.25,2.9640705601780613,3.5707142142714248,-18.0
786,0,-3,-3,0,6,-1,1,3,False,6,-3,0.375,3.020761493398643,2.850438562747845,3.0
787,3,1,-1,1,8,2,-1,-1,False,8,-1,1.5,3.0237157840738176,3.2015621187164243,12.0
788,3,0,-1,2,11,-2,-1,2,False,11,-2,1.75,4.131758532565591,4.242640687119285,14.0
789,3,-6,-5,-5,-11,-3,-2,0,False,3,-11,-3.625,4.2067123233504535,5.350233639758174,-29.0
790,-2,0,5,3,2,0,-1,0,False,5,-2,0.875,2.295181287579947,2.318404623873926,7.0
791,-2,1,1,2,4,0,-2,1,False,4,-2,0.625,1.9955307206712847,1.9685019685029528,5.0
792,-2,0,-2,-1,8,-2,-1,2,False,8,-2,0.25,3.4121631178560534,3.2015621187164243,2.0
793,-2,1,-2,-1,0,-2,1,0,False,1,-2,-0.625,1.3024701806293193,1.3693063937629153,-5.0
794,4,2,1,0,3,0,0,-1,False,4,-1,1.125,1.7268882005337973,1.9685019685029528,9.0
795,-3,-1,1,1,-1,-1,0,1,False,1,-3,-0.375,1.4078859531733587,1.3693063937629153,-3.0
796,-2,-3,-5,-2,3,0,-1,0,False,3,-5,-1.25,2.3754698783308412,2.5495097567963922,-10.0
797,0,-16,3,0,1,0,-1,-9,False,3,-16,-2.75,6.408699444616557,6.59545297913646,-22.0
798,-2,-1,2,1,1,0,0,1,False,2,-2,0.25,1.2817398889233114,1.224744871391589,2.0
799,0,2,-6,0,-1,-1,0,0,False,2,-6,-0.75,2.3145502494313788,2.29128784747792,-6.0
800,1,-3,0,-2,0,-1,-1,0,False,1,-3,-0.75,1.2817398889233114,1.4142135623730951,-6.0
801,1,1,0,-2,-3,-3,-1,-3,False,1,-3,-1.25,1.752549163769328,2.0615528128088303,-10.0
802,-3,3,1,1,1,-2,1,1,False,3,-3,0.375,1.922609833384967,1.8371173070873836,3.0
803,0,2,2,-2,0,-1,0,0,False,2,-2,0.125,1.3562026818605375,1.2747548783981961,1.0
804,-7,0,-1,-1,-3,-2,-1,-2,False,0,-7,-2.125,2.1671244937540095,2.9368350311176825,-17.0
805,-3,-1,-1,-1,2,1,-1,1,False,2,-3,-0.375,1.5979898086569353,1.541103500742244,-3.0
806,-4,-3,-1,-2,-3,1,-2,1,False,1,-4,-1.625,1.8468119248354136,2.3717082451262845,-13.0
807,0,1,1,0,1,-2,0,0,False,1,-2,0.125,0.9910312089651149,0.9354143466934853,1.0
808,0,-2,-2,-2,3,2,0,-2,False,3,-2,-0.375,1.9955307206712847,1.9039432764659772,-3.0
809,1,-1,-1,0,0,1,-1,-1,False,1,-1,-0.25,0.8864052604279183,0.8660254037844386,-2.0
810,0,-1,-1,-3,-4,-2,-2,-3,False,0,-4,-2.0,1.3093073414159542,2.345207879911715,-16.0
811,0,-1,-1,0,-4,-2,0,1,False,1,-4,-0.875,1.5526475085202969,1.695582495781317,-7.0
812,0,-1,-2,-2,-4,-2,0,0,False,0,-4,-1.375,1.4078859531733587,1.9039432764659772,-11.0
813,-3,-1,-3,-4,-24,-40,-40,-9,False,-1,-40,-15.5,16.77583295781677,22.056745000112777,-124.0
814,-2,0,-1,-3,2,-2,1,0,False,2,-3,-0.625,1.6850180160122068,1.695582495781317,-5.0
815,-1,2,1,-2,2,12,8,1,False,12,-2,2.875,4.733995594179856,5.2796780204857185,23.0
816,-7,-1,1,-2,-12,14,62,5,False,62,-12,7.5,23.34217519549416,23.08679276123039,60.0
817,2,-2,-2,-1,12,15,19,3,False,19,-2,5.75,8.345229603962801,9.695359714832659,46.0
818,9,1,-1,4,12,12,3,4,False,12,-1,5.5,4.928053803045811,7.176350047203662,44.0
819,1,0,2,2,5,-1,-11,0,False,5,-11,-0.25,4.713203338949605,4.415880433163923,-2.0
820,4,-2,0,-1,-12,-3,0,-2,False,4,-12,-2.0,4.566962103755937,4.716990566028302,-16.0
821,-1,-1,0,2,4,0,3,0,False,4,-1,0.875,1.8850918886280925,1.9685019685029528,7.0
822,-3,-1,-2,1,10,-15,-73,-1,False,10,-73,-10.5,26.153393661244042,26.62235902394827,-84.0
823,1,2,2,4,6,7,13,8,False,13,1,5.375,3.9977672339873487,6.547900426854397,43.0
824,-11,-4,-4,-2,-1,-2,2,-2,False,2,-11,-3.0,3.7416573867739413,4.6097722286464435,-24.0
825,-20,-1,-1,-2,-8,-22,-8,-4,False,-1,-22,-8.25,8.362330502232702,11.368817000902073,-66.0
826,-7,-9,-4,-3,-1,-10,-26,-43,False,-1,-43,-12.875,14.416632259799293,18.64470434198408,-103.0
827,-15,-7,-1,0,-2,3,9,-21,False,9,-21,-4.25,9.750457864707101,10.062305898749054,-34.0
828,-31,2,-2,-1,3,0,19,11,False,19,-31,0.125,14.446329242109519,13.513881751739579,1.0
829,36,12,1,0,0,5,6,25,False,36,0,10.625,13.222680731012366,16.30567385912033,85.0
830,1,1,0,1,-1,2,3,12,False,12,-1,2.375,4.0686080455816125,4.4860896112315904,19.0
831,-6,3,9,1,-2,2,-7,-4,False,9,-7,-0.5,5.31843156256751,5.0,-4.0
832,12,6,-2,-2,-1,9,12,14,False,14,-2,6.0,6.782329983125268,8.73212459828649,48.0
833,-5,6,-1,-1,-2,-23,-8,-6,False,6,-23,-5.0,8.417668492946419,9.327379053088816,-40.0
834,31,-4,4,-1,-2,2,-6,-7,False,31,-7,2.125,12.252550754842845,11.656543226874767,17.0
835,-80,-9,-8,-3,-2,-3,-3,-12,False,-2,-80,-15.0,26.5114530506561,28.982753492378876,-120.0
836,11,6,7,2,1,-1,4,23,False,23,-1,6.625,7.614600636746674,9.72753822917186,53.0
837,-20,-8,-13,-6,-5,2,-23,-7,False,2,-23,-10.0,8.246211251235321,12.62933094031509,-80.0
838,10,-9,0,0,5,3,7,7,False,10,-9,2.875,5.938674695827103,6.254998001598402,23.0
839,51,1,-8,-7,-3,-5,13,14,False,51,-8,7.0,19.719461018423978,19.72941965694886,56.0
840,3,1,0,1,1,-3,-10,-3,False,3,-10,-1.25,4.0970372570571385,4.031128874149275,-10.0
841,13,0,-1,1,2,2,6,-2,False,13,-2,2.625,4.838461975226661,5.232112384114087,21.0
842,-37,0,4,0,0,-3,-1,7,False,7,-37,-3.75,13.791819521523825,13.435028842544403,-30.0
843,-25,0,-2,1,2,6,4,-1,False,6,-25,-1.875,9.701803955966128,9.266876496425319,-15.0
844,11,27,15,5,-2,2,5,-6,False,27,-6,7.125,10.439451271841008,12.088217403736582,57.0
845,-47,-40,-11,-7,-1,3,-9,-23,False,3,-47,-16.875,18.20861256187773,23.976551044718672,-135.0
846,-28,6,1,2,1,2,1,-4,False,6,-28,-2.375,10.702970215251998,10.289557813628338,-19.0
847,-5,-8,0,-1,-1,-3,-15,-19,False,0,-19,-6.5,7.050835816716037,9.260129588726066,-52.0
848,-47,3,-1,0,0,-2,3,-22,False,3,-47,-8.25,17.612901115781174,18.425525772688278,-66.0
849,-7,-4,-4,-3,-4,-44,-61,-32,False,-3,-61,-19.875,22.762359280180075,29.126877621880446,-159.0
850,-36,-34,-7,-5,2,4,4,25,False,25,-36,-5.875,20.392137840704336,19.959333656212074,-47.0
851,13,-2,-2,0,-2,-20,-9,-53,False,13,-53,-9.375,19.8849368690402,20.8296663439432,-75.0
852,14,4,3,1,1,-5,5,7,False,14,-5,3.75,5.4707011825333165,6.34428877022476,30.0
853,-20,-13,2,0,5,5,-24,-8,False,5,-24,-6.625,11.413494519333558,12.564831873129062,-53.0
854,1,-15,-8,-3,-2,13,9,16,False,16,-15,1.375,10.64944666570589,10.056092680559383,11.0
855,-23,16,-3,-1,-4,-7,-60,-17,False,16,-60,-12.375,22.436816046081812,24.364420781130832,-99.0
856,51,8,-4,-1,-1,-63,-104,27,False,51,-104,-10.875,49.64283144911976,47.69302884070166,-87.0
857,-50,-6,3,2,2,10,28,-1,False,28,-50,-1.5,22.103651928390217,20.73041244162788,-12.0
858,30,-5,-5,-7,-2,27,44,8,False,44,-7,11.25,19.710403344427025,21.598611066455177,90.0
859,42,-23,-2,-1,-1,20,12,6,False,42,-23,6.625,19.003289188979892,18.970371635790375,53.0
860,6,-3,0,0,-4,-8,25,23,False,25,-8,4.875,12.472111746956545,12.644168616401792,39.0
861,-8,6,0,-2,-4,0,4,-16,False,6,-16,-2.5,6.98978847012861,7.0,-20.0
862,-76,-39,-7,-5,-4,43,-24,4,False,43,-76,-13.5,34.579101863904526,35.04996433664377,-108.0
863,60,5,0,1,0,-7,10,47,False,60,-7,14.5,24.79055119539355,27.349588662354687,116.0
864,42,13,1,2,2,10,33,11,False,42,1,14.25,15.247950681976906,20.161845153655953,114.0
865,-39,-8,-9,-6,-6,-12,-16,27,False,27,-39,-8.625,18.01537042163084,18.93079501764255,-69.0
866,-15,4,1,3,0,6,21,-2,False,21,-15,2.25,9.939100275463282,9.565563234854496,18.0
867,3,12,-3,-5,-4,-5,8,-17,False,12,-17,-1.375,8.991066995317391,8.522030274529655,-11.0
868,-19,24,15,5,3,-1,2,-80,False,24,-80,-6.375,32.23989321145022,30.82409771591052,-51.0
869,2,-9,-4,-1,-2,-1,-5,-23,False,2,-23,-5.375,7.836498853806736,9.089829481348922,-43.0
870,19,5,0,-2,-1,4,12,9,False,19,-2,5.75,7.245688373094719,8.888194417315589,46.0
871,20,6,-3,-3,-2,-5,4,-2,False,20,-5,1.875,8.236460751699465,7.929375763576853,15.0
872,15,35,9,6,2,2,15,32,False,35,2,14.5,12.772738827004064,18.788294228055936,116.0
873,0,-7,10,7,2,1,0,-3,False,10,-7,1.25,5.338539126015656,5.1478150704935,10.0
874,-15,-28,-17,-5,-2,4,10,0,False,10,-28,-6.625,12.489281118508897,13.430376018563292,-53.0
875,-3,2,-3,1,0,-6,-9,-22,False,2,-22,-5.0,7.782764841072135,8.831760866327846,-40.0
876,20,-1,-4,0,-1,1,6,29,False,29,-4,6.25,11.853269591129697,12.727922061357855,50.0
877,-19,7,7,-1,1,-2,1,24,False,24,-19,2.25,11.961246948852304,11.412712210513327,18.0
878,11,12,-15,-3,2,-2,2,-4,False,12,-15,0.375,8.667467911679857,8.116341540373963,3.0
879,11,-32,0,-3,-4,-3,-3,2,False,11,-32,-4.0,12.328828005937952,12.206555615733702,-32.0
880,12,5,-10,-4,-2,0,3,-6,False,12,-10,-0.25,6.902380541730305,6.461423991660043,-2.0
881,-52,-19,-28,-11,-3,1,5,-6,False,5,-52,-14.125,18.688709349306524,22.474986095657545,-113.0
882,22,16,13,6,2,1,-2,-8,False,22,-8,6.25,10.03920884759921,11.280514172678478,50.0
883,-20,3,1,0,0,2,-1,-2,False,3,-20,-2.125,7.395703385846986,7.237057413065064,-17.0
884,2,-7,-8,-1,-2,2,1,0,False,2,-8,-1.625,3.8890872965260113,3.984344362627307,-13.0
885,-2,-10,-6,-5,-3,-1,2,5,False,5,-10,-2.5,4.69041575982343,5.049752469181039,-20.0
886,-11,22,28,7,2,1,0,3,False,28,-11,6.5,12.615183595289334,13.47219358530748,52.0
887,17,-15,-17,-5,-1,-5,-8,-46,False,17,-46,-10.0,17.864569884071017,19.474342094150447,-80.0
888,7,4,15,2,2,1,6,16,False,16,1,6.625,5.853875395228116,8.595056718835542,53.0
889,-3,-6,-8,0,-3,1,5,15,False,15,-8,0.125,7.259230577094832,6.791538853603062,1.0
890,-3,2,-2,-3,0,-1,-1,-5,False,2,-5,-1.625,2.1339098923270936,2.57390753524675,-13.0
891,-6,27,44,10,3,2,-1,-3,False,44,-6,9.5,17.328753973835344,18.788294228055936,76.0
892,-8,-28,-12,-3,-2,-2,-1,-5,False,-1,-28,-7.625,9.022788609167028,11.374313166077325,-61.0
893,23,6,-2,3,4,-1,0,6,False,23,-2,4.875,7.936128959205669,8.881159834165805,39.0
894,-7,-9,7,0,1,-1,-3,-9,False,7,-9,-2.625,5.5533130394644346,5.820223363411408,-21.0
895,-11,-6,-4,-4,-2,2,-4,-21,False,2,-21,-6.25,6.98467710676122,9.041570660012562,-50.0
896,34,13,-12,-8,-27,-14,-1,0,False,34,-27,-1.875,18.635124285683126,17.53211339228674,-15.0
897,22,9,0,-2,7,-2,1,17,False,22,-2,6.5,9.055385138137417,10.677078252031311,52.0
898,-1,-4,-13,-33,16,15,3,-10,False,16,-33,-3.375,15.91887917806132,15.26843148460247,-27.0
899,15,-10,3,33,40,-18,2,11,False,40,-18,9.5,19.820624179302296,20.83266665599966,76.0
900,0,5,-7,-21,-23,2,2,11,False,11,-23,-3.875,12.26420459245989,12.108881038312335,-31.0
901,-1,13,3,-2,34,-11,2,-10,False,34,-11,3.5,14.47164715671894,13.982131454109563,28.0
902,-20,-4,-13,-19,-40,14,7,-10,False,14,-40,-10.625,16.85176972478389,19.009865859600378,-85.0
903,-20,9,11,93,35,20,5,-3,False,93,-20,18.75,34.01155265914384,36.92898590538332,150.0
904,-19,-10,-7,7,14,-1,-6,-3,False,14,-19,-3.125,10.162079371017388,10.00624804809475,-25.0
905,8,5,7,-6,-27,-4,-4,6,False,8,-27,-1.875,11.605879052076519,11.017032268265352,-15.0
906,21,-28,-12,-7,-11,-2,-1,4,False,21,-28,-4.5,14.132030488018545,13.96424004376894,-36.0
907,-8,-3,-7,-7,-1,-5,-7,0,False,0,-8,-4.75,3.0589447293376937,5.545268253204709,-38.0
908,9,-50,-22,-25,-22,-3,0,-5,False,9,-50,-14.75,18.774983355518586,22.93468988235943,-118.0
909,4,34,10,1,5,-1,-1,-5,False,34,-5,5.875,12.240885822287769,12.869537676233751,47.0
910,-11,20,1,-5,-9,2,-2,3,False,20,-11,-0.125,9.598176910226233,8.979142498033985,-1.0
911,10,-11,-3,-11,-9,-4,-4,-1,False,10,-11,-4.125,6.854352110677045,7.623975340988453,-33.0
912,-7,34,7,3,4,-1,-3,-2,False,34,-7,4.375,12.76084972540174,12.71318213509112,35.0
913,5,-10,-14,-20,-19,-4,-1,-6,False,5,-20,-8.625,8.782084035125148,11.911129249571596,-69.0
914,-8,27,20,6,7,1,0,-9,False,27,-9,5.5,12.637811745483697,13.038404810405298,44.0
915,-25,22,10,-11,-29,-5,-3,-4,False,22,-29,-5.625,16.766782637107216,16.662082702951633,-45.0
916,-14,3,5,-1,5,-1,-5,0,False,5,-14,-1.0,6.25642526870234,5.937171043518958,-8.0
917,9,-12,-10,-3,-49,0,1,8,False,9,-49,-7.0,18.547236990991408,18.708286933869708,-56.0
918,-1,-25,-20,-5,37,0,2,7,False,37,-25,-0.625,18.784016761978407,17.58195097251724,-5.0
919,5,-9,-6,-19,-39,-9,-4,1,False,5,-39,-10.0,13.742530438647128,16.28649747490233,-80.0
920,-27,-11,-6,1,-11,-8,-2,-1,False,1,-27,-8.125,8.854982455415385,11.602801385872294,-65.0
921,-9,-9,-3,27,50,-3,1,-3,False,50,-9,6.375,21.023371348505044,20.673050089428024,51.0
922,16,4,4,-7,-24,0,0,4,False,16,-24,-0.375,11.51319119221823,10.776131031126154,-3.0
923,3,-3,-3,-11,-19,-4,-2,3,False,3,-19,-4.5,7.329003050503234,8.200609733428363,-36.0
924,-3,-15,-2,-1,-22,0,0,-2,False,0,-22,-5.625,8.227783940492639,9.53283798246881,-45.0
925,2,2,-8,-8,18,2,-1,2,False,18,-8,1.125,8.096516005577426,7.656696415556778,9.0
926,6,-1,1,26,12,-3,-5,-2,False,26,-5,4.25,10.361329203202784,10.583005244258363,34.0
927,-2,2,0,-9,10,5,-1,-9,False,10,-9,-0.5,6.48074069840786,6.082762530298219,-4.0
928,11,2,-1,-14,-6,-2,2,4,False,11,-14,-0.5,7.367883976130073,6.910137480542627,-4.0
929,-10,-3,1,12,3,7,1,0,False,12,-10,1.375,6.523309852258394,6.254998001598402,11.0
930,-3,3,1,1,22,-3,-1,-3,False,22,-3,2.125,8.339878382121135,8.085480814398114,17.0
931,-8,-8,-5,-13,48,1,-3,-8,False,48,-13,0.5,19.632334844041637,18.371173070873837,4.0
932,-23,-1,0,0,3,5,-2,-2,False,5,-23,-2.5,8.635475005547093,8.455767262643882,-20.0
933,-17,0,1,-5,-5,-2,-1,0,False,1,-17,-3.625,5.853875395228116,6.566962768281849,-29.0
934,-7,2,1,-2,-17,-4,3,5,False,5,-17,-2.375,7.089982873241453,7.044501401802686,-19.0
935,6,-11,-8,-7,8,-3,-1,-1,False,8,-11,-2.125,6.642665127793212,6.566962768281849,-17.0
936,-1,-1,-3,1,-18,-1,0,9,False,9,-18,-1.75,7.497618669570072,7.22841614740048,-14.0
937,4,10,15,-2,-12,1,0,2,False,15,-12,2.25,8.048957341526558,7.858116822750856,18.0
938,-10,2,-8,-1,-19,-2,-1,4,False,4,-19,-4.375,7.539183358579741,8.299096336348915,-35.0
939,21,-5,-5,2,-13,-3,1,6,False,21,-13,0.5,10.05698051817031,9.420721840708387,4.0
940,5,-12,-4,-1,2,1,3,9,False,9,-12,0.375,6.323143431644016,5.926634795564849,3.0
941,-5,-3,-7,-4,2,0,-3,-1,False,2,-7,-2.625,2.8753881725529062,3.758324094593227,-21.0
942,5,26,14,-1,-22,-1,-4,-8,False,26,-22,1.125,14.406719662316311,13.523128336298521,9.0
943,4,6,0,-7,-11,0,-3,-5,False,6,-11,-2.0,5.656854249492381,5.656854249492381,-16.0
944,-1,-12,-2,0,-3,-4,-9,-13,False,0,-13,-5.5,5.0990195135927845,7.280109889280518,-44.0
945,-2,-4,-10,-8,8,-2,-4,-7,False,8,-10,-3.625,5.50162313711664,6.294839156007086,-29.0
946,4,-3,-3,-6,-21,-5,-1,-7,False,4,-21,-5.25,7.225945316308843,8.558621384311845,-42.0
947,2,-2,1,2,4,0,-3,-3,False,4,-3,0.125,2.5877458475338284,2.4238399287081647,1.0
948,-7,-14,-6,1,-3,0,0,-5,False,1,-14,-4.25,4.949747468305833,6.284902544988268,-34.0
949,8,11,4,4,0,0,1,5,False,11,0,4.125,3.9074105418879577,5.5113519212621505,33.0
950,-3,2,0,3,5,0,1,2,False,5,-3,1.25,2.3754698783308412,2.5495097567963922,10.0
951,2,2,3,-4,-19,3,1,1,False,3,-19,-1.375,7.46300399111702,7.115124735378854,-11.0
952,-3,0,0,9,1,-1,-1,-7,False,9,-7,-0.25,4.496029994816062,4.2130748865881795,-2.0
953,-3,-16,-6,-3,-5,-1,-1,0,False,0,-16,-4.375,5.125217765408329,6.490377492873585,-35.0
954,1,5,5,-4,-1,0,8,9,False,9,-4,2.875,4.580626906564522,5.1599418601375735,23.0
955,-3,-4,-3,9,9,0,0,1,False,9,-4,1.125,5.166858675387645,4.962358310319802,9.0
956,-1,4,9,2,3,0,-4,-3,False,9,-4,1.25,4.200340122282616,4.123105625617661,10.0
957,-3,1,1,2,5,0,1,-4,False,5,-4,0.375,2.8252686345094435,2.669269563007828,3.0
958,2,-6,-5,-1,-3,2,-1,1,False,2,-6,-1.375,3.0676887530703443,3.181980515339464,-11.0
959,3,5,-2,0,-4,0,-1,0,False,5,-4,0.125,2.7998724460742337,2.622022120425379,1.0
960,-3,-15,-8,-4,-4,0,-1,-4,False,0,-15,-4.875,4.733995594179856,6.585969936159746,-39.0
961,20,5,-3,7,17,1,0,16,False,20,-3,7.875,8.724964183307574,11.341296222213755,63.0
962,-3,5,7,-1,-10,-4,-1,-3,False,7,-10,-1.25,5.311712126450916,5.123475382979799,-10.0
963,2,-8,2,6,-5,0,2,-2,False,6,-8,-0.375,4.470139019889969,4.198213905936666,-3.0
964,-6,8,5,-1,3,-2,2,1,False,8,-6,1.25,4.334248987508019,4.242640687119285,10.0
965,-7,-13,3,1,1,-3,-4,-16,False,3,-16,-4.75,6.860862086606068,7.984359711335656,-38.0
966,3,7,-10,-5,-6,0,-4,-6,False,7,-10,-2.625,5.5533130394644346,5.820223363411408,-21.0
967,-2,27,27,3,3,1,3,8,False,27,-2,8.75,11.597413504743201,13.937359864766353,70.0
968,4,3,-12,-6,0,0,-2,0,False,4,-12,-1.625,5.180664601601392,5.111262075065218,-13.0
969,-6,-13,2,-5,-2,-2,1,-5,False,2,-13,-3.75,4.713203338949605,5.787918451395113,-30.0
1041,6,-3,8,3,0,-2,-1,0,False,8,-3,1.375,3.9256482631170977,3.9210967853395307,11.0
1042,-9,6,0,-2,0,0,0,6,False,6,-9,0.125,4.733995594179856,4.430011286667337,1.0
1043,-5,2,-1,2,0,0,-1,-3,False,2,-5,-0.75,2.3754698783308412,2.345207879911715,-6.0
1044,-2,-2,4,4,1,0,-1,-3,False,4,-3,0.125,2.6958963523950885,2.5248762345905194,1.0
1045,2,4,-5,-3,-6,1,0,0,False,4,-6,-0.875,3.48209706929603,3.3726843908080104,-7.0
1046,12,-6,-2,-1,8,0,-1,3,False,12,-6,1.625,5.829420456369815,5.689903338370521,13.0
1047,-14,-5,-2,-9,-17,-2,-4,-7,False,-2,-17,-7.5,5.529143565818179,9.1104335791443,-60.0
1048,-9,-4,0,-2,-7,-2,0,8,False,8,-9,-2.0,5.154748157905347,5.220153254455275,-16.0
1049,5,-4,-6,-3,-6,-3,-4,-6,False,5,-6,-3.375,3.6228441865473595,4.782781617427248,-27.0
1050,-4,-9,-8,-3,-4,-2,1,9,False,9,-9,-2.5,5.631543812693435,5.830951894845301,-20.0
1051,-9,6,3,4,7,0,1,-2,False,7,-9,1.25,5.1199888392735495,4.949747468305833,10.0
1052,1,14,6,9,1,1,3,0,False,14,0,4.375,4.955156044825574,6.373774391990981,35.0
1053,-5,-5,-2,0,4,1,2,1,False,4,-5,-0.5,3.251373336211726,3.082207001484488,-4.0
1054,1,8,-5,-2,-1,2,1,3,False,8,-5,0.875,3.833592123769634,3.69120576505835,7.0
1055,-11,-4,-2,0,7,0,-2,-3,False,7,-11,-1.875,4.9982139667227985,5.0373604199024715,-15.0
1056,8,1,0,2,-5,-1,-2,-5,False,8,-5,-0.25,4.200340122282616,3.9370039370059056,-2.0
1057,-16,-18,-10,-4,-6,-3,-4,0,False,0,-18,-7.625,6.4572771793867245,9.72753822917186,-61.0
1058,-6,6,4,4,-4,-3,-4,-8,False,6,-8,-1.375,5.262739645035518,5.111262075065218,-11.0
1059,10,-4,-1,-3,-5,-3,-1,-3,False,10,-5,-1.25,4.743416490252569,4.6097722286464435,-10.0
1060,-3,2,-3,-3,-10,-2,-1,-1,False,2,-10,-2.625,3.420004177106889,4.138236339311712,-21.0
1061,4,-5,-2,-5,4,1,1,6,False,6,-5,0.5,4.174754056057845,3.9370039370059056,4.0
1062,6,6,-6,-1,1,-1,-1,-8,False,6,-8,-0.5,4.985693819032899,4.69041575982343,-4.0
1063,0,8,-1,2,-6,-2,0,2,False,8,-6,0.375,3.9977672339873487,3.758324094593227,3.0
1064,-2,-4,0,0,3,-3,-1,-1,False,3,-4,-1.0,2.138089935299395,2.23606797749979,-8.0
1065,7,3,2,4,5,0,0,-4,False,7,-4,2.125,3.440826312717007,3.856812155135378,17.0
1066,-1,3,-2,-5,-4,-2,-1,-1,False,3,-5,-1.625,2.38671920665766,2.7613402542968153,-13.0
1067,-8,11,18,12,9,4,1,3,False,18,-8,6.25,7.995534467974697,9.746794344808963,50.0
1068,11,-4,1,-9,-9,-3,-3,-10,False,11,-10,-3.25,6.902380541730305,7.22841614740048,-26.0
1069,13,4,-9,-2,0,-2,0,-1,False,13,-9,0.375,6.254998001598402,5.8630196997792865,3.0
1070,-21,-24,-6,-2,3,0,-2,0,False,3,-24,-6.5,10.22601723895616,11.565033506220377,-52.0
1071,0,-1,-4,1,-1,-1,-2,-1,False,1,-4,-1.125,1.4577379737113252,1.7677669529663689,-9.0
1072,-13,11,-5,-4,5,0,-2,-4,False,11,-13,-1.5,7.151423434733616,6.855654600401044,-12.0
1073,-15,-2,0,-2,-2,-2,2,0,False,2,-15,-2.625,5.208166663999915,5.533985905294664,-21.0
1074,6,1,-2,5,1,-1,1,0,False,6,-2,1.375,2.774243783705493,2.9368350311176825,11.0
1075,22,5,3,-5,-1,-1,-3,3,False,22,-5,2.875,8.425090080061034,8.388980867781259,23.0
1076,-3,5,-3,-2,1,1,3,-1,False,5,-3,0.125,2.900123150094541,2.715695122800054,1.0
1077,-10,5,-2,3,1,-1,-2,-6,False,5,-10,-1.5,4.810702354423639,4.743416490252569,-12.0
1078,3,-2,8,2,-1,-1,0,9,False,9,-2,2.25,4.200340122282616,4.527692569068709,18.0
1079,-30,-24,5,6,0,0,-1,-1,False,6,-30,-5.625,13.553465555769439,13.869931506680198,-45.0
1080,-7,0,-7,4,-1,1,-1,2,False,4,-7,-1.125,3.9798600118956085,3.8890872965260113,-9.0
1081,5,-2,2,-1,-1,-2,-5,-9,False,5,-9,-1.625,4.2067123233504535,4.257346591481601,-13.0
1082,-2,-2,3,-1,-4,-3,-2,1,False,3,-4,-1.25,2.2519832529192065,2.449489742783178,-10.0
1083,1,-2,0,-4,1,-2,-1,2,False,2,-4,-0.625,1.9955307206712847,1.9685019685029528,-5.0
1084,-7,1,-8,0,-3,-3,-3,-2,False,1,-8,-3.125,3.090885217631258,4.257346591481601,-25.0
1085,23,18,13,3,-2,0,3,5,False,23,-2,7.875,9.046506823867746,11.559628021696891,63.0
1086,-35,-3,-12,-16,-6,1,3,12,False,12,-35,-7.0,14.302846869467231,15.0996688705415,-56.0
1087,-8,-9,12,9,1,0,-3,-6,False,12,-9,-0.5,7.690439333539868,7.211102550927978,-4.0
1088,9,-7,-5,-6,-2,0,2,4,False,9,-7,-0.625,5.50162313711664,5.18411033833193,-5.0
1089,-12,-7,-7,-9,-4,-2,1,-1,False,1,-12,-5.125,4.38951673226759,6.566962768281849,-41.0
1090,3,4,2,-2,1,0,0,-6,False,4,-6,0.25,3.1509635714446826,2.958039891549808,2.0
1091,5,5,6,-2,3,2,0,3,False,6,-2,2.75,2.712405363721075,3.7416573867739413,22.0
1092,-3,4,2,3,2,-2,0,-8,False,4,-8,-0.25,3.955105199973465,3.7080992435478315,-2.0
1093,30,17,-13,-9,-5,-3,-1,-21,False,30,-21,-0.625,16.52649388103841,15.471748446765801,-5.0
1094,18,0,12,4,3,-1,-3,1,False,18,-3,4.25,7.166389806390862,7.937253933193772,34.0
1095,-31,-23,-20,-14,-11,-4,1,7,False,7,-31,-11.875,12.78880648960533,16.856007831037573,-95.0
1096,8,4,13,17,10,4,-4,-11,False,17,-11,5.125,9.109453488390116,9.943590900675671,41.0
1097,-19,3,2,4,1,1,1,3,False,4,-19,-0.5,7.559289460184544,7.088723439378913,-4.0
1098,-11,1,-4,-8,-7,-4,-2,-6,False,1,-11,-5.125,3.720119045714225,6.194755846681933,-41.0
1099,2,7,2,3,3,2,-1,10,False,10,-1,3.5,3.4226138716316967,4.743416490252569,28.0
1100,-5,-15,-13,1,-4,-2,-1,6,False,6,-15,-4.125,6.978282637685906,7.721722605740251,-33.0
1101,21,3,-3,-4,-7,-4,-2,-4,False,21,-7,0.0,8.94427190999916,8.366600265340756,0.0
1102,10,-4,-7,-4,-7,-4,1,-5,False,10,-7,-2.5,5.631543812693435,5.830951894845301,-20.0
1103,9,0,1,6,6,2,0,2,False,9,0,3.25,3.3273756282434617,4.5,26.0
1104,-4,-6,-4,-1,3,2,-4,-15,False,3,-15,-3.625,5.578978401105349,6.354132513569417,-29.0
1105,-16,-4,1,-6,-3,-2,1,3,False,3,-16,-3.25,5.946187253790689,6.442049363362563,-26.0
1106,12,-17,-23,-7,-6,-5,-2,4,False,12,-23,-5.5,11.019463300386795,11.683321445547923,-44.0
1107,7,20,10,-2,1,-1,0,14,False,20,-2,6.125,8.025628591313847,9.68891118753805,49.0
1108,4,-17,-9,-6,-7,-4,-5,-14,False,4,-17,-7.25,6.408699444616557,9.40744386111339,-58.0
1109,-5,-5,-1,0,-2,1,1,-1,False,1,-5,-1.5,2.390457218668787,2.692582403567252,-12.0
1110,-8,1,7,1,4,5,4,2,False,7,-8,2.0,4.535573676110727,4.69041575982343,16.0
1111,5,5,3,1,2,1,2,4,False,5,1,2.875,1.6420805617960925,3.2596012026013246,23.0
1112,8,3,-4,-1,-4,-2,-1,9,False,9,-4,1.0,5.1269595556932455,4.898979485566356,8.0
1113,3,-4,-4,4,-1,-5,-2,2,False,4,-5,-0.875,3.48209706929603,3.3726843908080104,-7.0
1114,-4,-5,-3,0,-2,-1,3,6,False,6,-5,-0.75,3.693623849670827,3.5355339059327378,-6.0
1115,7,4,8,4,5,10,-1,-5,False,10,-5,4.0,4.898979485566356,6.082762530298219,32.0
1116,15,11,-1,-3,1,-2,0,-5,False,15,-5,2.0,7.111359122659224,6.946221994724902,16.0
1117,-3,-27,-7,-9,7,-2,3,8,False,8,-27,-3.75,11.221790027824056,11.146748404803978,-30.0
1118,22,3,10,1,-1,0,1,3,False,22,-1,4.875,7.698562017861332,8.696263565463044,39.0
1119,3,8,0,3,10,5,-1,-6,False,10,-6,2.75,5.1199888392735495,5.522680508593631,22.0
1120,-1,0,-1,17,26,10,-2,0,False,26,-2,6.125,10.494045930907678,11.570436465406134,49.0
1121,7,0,-2,-1,-9,-3,-1,-10,False,7,-10,-2.375,5.343554194407635,5.533985905294664,-19.0
1122,-13,4,2,-6,-11,-3,-3,10,False,10,-13,-2.5,7.690439333539868,7.615773105863909,-20.0
1123,-8,-20,-8,-4,0,-8,-1,-5,False,0,-20,-6.75,6.2048368229954285,8.902246907382429,-54.0
1124,-12,-17,-6,-7,-7,-8,-3,1,False,1,-17,-7.375,5.423164600647327,8.951256894984079,-59.0
1125,-4,9,3,0,-7,-3,-2,-3,False,9,-7,-0.875,4.940720016932176,4.703721930556695,-7.0
1126,0,-3,-5,-5,1,-2,-6,-23,False,1,-23,-5.375,7.539183358579741,8.8670739254841,-43.0
1127,-6,-12,-7,-8,-6,-3,-2,2,False,2,-12,-5.25,4.234214381508266,6.576473218982953,-42.0
1128,-6,7,1,2,0,2,1,1,False,7,-6,1.0,3.5456210417116734,3.4641016151377544,8.0
1129,5,19,-3,-2,12,1,-1,-5,False,19,-5,3.25,8.32809359080113,8.440971508067067,26.0
1130,1,5,2,-3,-15,-1,-1,5,False,5,-15,-0.875,6.379375249303694,6.031169040907409,-7.0
1131,-1,2,1,1,-22,-1,-3,1,False,2,-22,-2.75,7.9417522355855805,7.92148975887743,-22.0
1132,-3,-3,3,-2,-5,-1,-1,-2,False,3,-5,-1.75,2.3145502494313788,2.7838821814150108,-14.0
1133,0,1,1,-7,-10,-4,0,4,False,4,-10,-1.875,4.703721930556695,4.782781617427248,-15.0
1134,-1,-5,-5,0,-4,0,1,-2,False,1,-5,-2.0,2.390457218668787,3.0,-16.0
1135,8,11,10,12,5,1,-3,-7,False,12,-7,4.625,6.988510979764267,8.007808689023484,37.0
1136,-2,1,0,1,7,12,1,6,False,12,-2,3.25,4.652188425123938,5.431390245600108,26.0
1137,-3,3,1,4,7,1,1,6,False,7,-3,2.5,3.2071349029490923,3.905124837953327,20.0
1138,-3,-7,-1,-3,-7,-12,-1,1,False,1,-12,-4.125,4.257346591481601,5.733672470589857,-33.0
1139,-2,-4,-5,-2,-2,-1,1,-3,False,1,-5,-2.25,1.8322507626258084,2.8284271247461903,-18.0
1140,0,7,-1,-1,1,0,-2,-6,False,7,-6,-0.25,3.615443067098218,3.391164991562634,-2.0
1141,0,-3,1,2,5,1,0,-5,False,5,-5,0.125,3.044315545875155,2.850438562747845,1.0
1142,2,-1,-3,5,4,-6,-2,-2,False,5,-6,-0.375,3.7392703642746743,3.517811819867572,-3.0
1143,0,3,-3,-4,-13,-2,-2,-6,False,3,-13,-3.375,4.718883039751796,5.5565276927232174,-27.0
1144,1,4,1,12,9,0,-1,1,False,12,-1,3.375,4.68851179556401,5.533985905294664,27.0
1145,3,-7,-3,0,4,0,0,13,False,13,-7,1.25,5.849297882163783,5.612486080160912,10.0
1146,-3,-4,-6,-11,-12,-5,0,-2,False,0,-12,-5.375,4.2067123233504535,6.661456297237114,-43.0
1147,1,-10,-4,-11,-7,-3,-3,0,False,1,-11,-4.625,4.373213921133975,6.174544517614234,-37.0
1148,-20,-19,6,-7,20,-2,-4,-13,False,20,-20,-4.875,13.335639681480814,13.393095235978874,-39.0
1149,4,1,1,2,4,3,1,-7,False,4,-7,1.125,3.5228843701879127,3.48209706929603,9.0
1150,8,1,-4,-4,-18,-3,-1,-9,False,8,-18,-3.75,7.55456342692472,8.0,-30.0
1151,0,9,7,2,8,-1,-1,7,False,9,-1,3.875,4.2907708265199025,5.578978401105349,31.0
1152,7,11,-4,-1,-5,1,-1,-6,False,11,-6,0.25,5.9701639125619606,5.5901699437494745,2.0
1153,-1,-2,-7,-2,-6,17,-1,2,False,17,-7,0.0,7.445036697597361,6.96419413859206,0.0
1154,3,-3,-1,8,2,-3,0,12,False,12,-3,2.25,5.338539126015656,5.477225575051661,18.0
1155,-4,-5,-6,-8,-14,-10,1,-6,False,1,-14,-6.5,4.4077853201547175,7.697402159170326,-52.0
1156,3,0,3,13,27,8,0,2,False,27,0,7.0,9.19627253681776,11.090536506409418,56.0
1157,-2,-4,0,-3,1,3,1,8,False,8,-4,0.5,3.8172540616821107,3.605551275463989,4.0
1158,10,9,3,-5,-3,-8,0,4,False,10,-8,1.25,6.453127702351561,6.164414002968976,10.0
1159,-9,-6,-3,-1,11,-6,0,1,False,11,-9,-1.625,6.13974173491268,5.9686681931566605,-13.0
1160,-3,0,-2,-5,-16,-4,-2,-3,False,0,-16,-4.375,4.926241685388278,6.354132513569417,-35.0
1161,21,24,5,12,-2,8,1,2,False,24,-2,8.875,9.478358809112773,12.544919290294377,71.0
1162,-3,-15,-6,-7,-1,2,0,1,False,2,-15,-3.625,5.604526232048012,6.373774391990981,-29.0
1163,-13,-8,-4,-6,2,-3,-4,-8,False,2,-13,-5.5,4.4077853201547175,6.87386354243376,-44.0
1164,-29,-2,4,3,-4,16,-1,-5,False,16,-29,-2.25,12.69139190835381,12.083045973594572,-18.0
1165,-19,-7,-1,0,-8,-8,-2,-6,False,0,-19,-6.375,6.022280061808579,8.507349763586777,-51.0
1166,14,2,-11,-14,-10,-11,-4,-3,False,14,-14,-4.625,9.19530159530243,9.766012492312305,-37.0
1167,18,-5,6,4,1,-1,0,-2,False,18,-5,2.625,7.089982873241453,7.132671308843553,21.0
1168,12,6,0,3,8,-7,-3,-2,False,12,-7,2.125,6.311836952447814,6.274950199005566,17.0
1169,10,3,4,6,22,2,3,0,False,22,0,6.25,7.025463889106744,9.069178573608527,50.0
1170,6,-6,-3,-15,-24,-8,-2,4,False,6,-24,-6.0,9.841602656942763,10.988630487917955,-48.0
1171,9,5,1,0,-6,2,-2,-8,False,9,-8,0.125,5.540435774506241,5.18411033833193,1.0
1172,-14,-15,-4,-1,-2,18,0,1,False,18,-15,-2.125,10.21815610987199,9.79157801378307,-17.0
1173,7,6,0,-1,-8,-13,1,5,False,7,-13,-0.375,7.0089228844380935,6.566962768281849,-3.0
1174,-11,0,4,5,8,-15,-1,-6,False,8,-15,-2.0,8.071112509614592,7.810249675906654,-16.0
1175,-2,-9,-2,-2,-2,4,-1,1,False,4,-9,-1.625,3.662064211031025,3.7914377220257753,-13.0
1176,16,7,-1,-1,-2,14,1,0,False,16,-2,4.25,7.206148168652336,7.968688725254614,34.0
1177,-17,-13,-7,-5,-2,-10,-1,-6,False,-1,-17,-7.625,5.44944295973713,9.17196816392207,-61.0
1178,-17,4,3,5,8,-7,1,0,False,8,-17,-0.375,8.034523721327322,7.5249584716462055,-3.0
1179,19,5,0,-1,-8,-1,-3,1,False,19,-8,1.5,7.964205637009345,7.599342076785332,12.0
1180,14,-9,-5,-3,-2,1,1,1,False,14,-9,-0.25,6.734771180756096,6.304760106459246,-2.0
1181,-16,-16,-4,-1,1,2,-2,-7,False,2,-16,-5.375,7.130167299179291,8.565920849505908,-43.0
1182,0,6,-1,-4,-1,-2,0,-5,False,6,-5,-0.875,3.3139316313320126,3.2210246816812815,-7.0
1183,12,6,2,1,1,1,-1,0,False,12,-1,2.75,4.267819784654187,4.847679857416329,22.0
1184,-1,-24,-8,-3,-1,-2,1,-2,False,1,-24,-5.0,8.106434833777776,9.082951062292475,-40.0
1185,-9,0,3,2,5,3,-1,-2,False,5,-9,0.125,4.356850107261306,4.077376607575022,1.0
1186,-15,7,6,4,-3,-2,-2,-4,False,7,-15,-1.125,7.0596944490739615,6.698880503487131,-9.0
1187,12,-6,-4,-5,-2,-4,0,11,False,12,-6,0.25,7.186296483088987,6.726812023536855,2.0
1188,-1,14,3,2,-4,-3,-3,6,False,14,-4,1.75,6.041522986797286,5.916079783099616,14.0
1189,-10,4,2,-1,10,3,-1,2,False,10,-10,1.125,5.667892024377317,5.4198708471697,9.0
1190,12,-5,-3,-4,-15,0,-1,-1,False,12,-15,-2.125,7.414994461032514,7.254309064273454,-17.0
1191,2,-11,-1,4,3,-10,-4,-5,False,4,-11,-2.75,5.7507763451058125,6.041522986797286,-22.0
1192,6,-6,-9,-7,-3,-8,-3,-5,False,6,-9,-4.375,4.718883039751796,6.214901447328026,-35.0
1193,5,-15,-10,-2,4,7,-2,-6,False,7,-15,-2.375,7.6892782496148495,7.574628703771558,-19.0
1194,7,-7,-9,-3,3,-8,0,0,False,7,-9,-2.125,5.667892024377317,5.7118298293979315,-17.0
1195,-15,14,2,-3,-5,-6,1,4,False,14,-15,-1.0,8.48528137423857,8.0,-8.0
1196,17,5,1,0,1,2,1,3,False,17,0,3.75,5.574175147179049,6.422616289332565,30.0
1197,4,14,8,5,3,6,-1,0,False,14,-1,4.875,4.733995594179856,6.585969936159746,39.0
1198,-8,-6,-1,-2,2,-1,-1,-3,False,2,-8,-2.5,3.1622776601683795,3.872983346207417,-20.0
1199,0,0,-7,-5,-12,2,1,1,False,2,-12,-2.5,4.985693819032899,5.291502622129181,-20.0
1200,-9,-2,-2,-6,7,-2,0,-4,False,7,-9,-2.25,4.6827952580239325,4.924428900898052,-18.0
1201,-4,10,-1,0,-2,4,-2,-3,False,10,-4,0.25,4.621378891320518,4.330127018922194,2.0
1202,-13,3,1,4,20,11,1,-6,False,20,-13,2.625,9.98480989160177,9.701803955966128,21.0
1203,8,-10,-6,-2,-6,-3,1,-1,False,8,-10,-2.375,5.423164600647327,5.60133912560202,-19.0
1204,0,-1,-4,0,-5,-4,-5,-8,False,0,-8,-3.375,2.8252686345094435,4.286607049870562,-27.0
1205,5,-2,-4,-8,-15,-8,-2,-2,False,5,-15,-4.5,5.903993805649092,7.123903424387503,-36.0
1206,-12,2,4,4,5,2,1,3,False,5,-12,1.125,5.462534733462636,5.232112384114087,9.0
1207,-10,2,6,0,6,-1,-1,2,False,6,-10,0.5,5.070925528371099,4.769696007084728,4.0
1208,-2,10,12,2,-4,-2,0,3,False,12,-4,2.375,5.804862493757158,5.926634795564849,19.0
1209,1,0,7,2,-6,-4,-1,-1,False,7,-6,-0.25,3.918819064098629,3.6742346141747673,-2.0
1210,2,-7,-4,2,-1,-2,-1,0,False,2,-7,-1.375,3.020761493398643,3.142451272494134,-11.0
1211,4,8,-4,1,9,0,-2,-5,False,9,-5,1.375,5.2355242608275905,5.086747487343951,11.0
1212,-12,-2,-4,-5,-7,-2,0,-2,False,0,-12,-4.25,3.8078865529319543,5.545268253204709,-34.0
1213,4,-4,1,0,-13,-1,-2,5,False,5,-13,-1.25,5.599744892148467,5.385164807134504,-10.0
1214,19,4,2,0,5,9,1,0,False,19,0,5.0,6.414269805898185,7.810249675906654,40.0
1215,0,-16,-5,-5,-2,-1,1,1,False,1,-16,-3.375,5.629958132298016,6.254998001598402,-27.0
1216,-2,-4,-5,5,-5,-3,-1,-2,False,5,-5,-2.125,3.2265638511757806,3.69120576505835,-17.0
1217,-7,1,-1,2,-1,1,0,-3,False,2,-7,-1.0,2.8784916685156974,2.8722813232690143,-8.0
1218,0,-3,-1,-4,-3,-6,-2,-1,False,0,-6,-2.5,1.927248223318863,3.082207001484488,-20.0
1219,-3,3,11,7,12,6,2,0,False,12,-3,4.75,5.230405611149374,6.819090848492928,38.0
1220,-6,0,-1,-1,-1,2,-1,2,False,2,-6,-0.75,2.4928469095164494,2.449489742783178,-6.0
1221,-13,-1,-3,0,-8,-3,-2,-9,False,0,-13,-4.875,4.580626906564522,6.490377492873585,-39.0
1222,3,4,3,-2,1,15,-2,0,False,15,-2,2.75,5.444525428617001,5.787918451395113,22.0
1223,-10,0,-3,1,3,-2,-3,-3,False,3,-10,-2.125,3.8706773124535783,4.198213905936666,-17.0
1224,36,-1,-11,-4,-7,-23,-2,3,False,36,-23,-1.125,16.965826997652833,15.90990257669732,-9.0
1225,-3,2,-2,-2,-4,-8,2,6,False,6,-8,-1.125,4.323936698360485,4.198213905936666,-9.0
1226,-8,-3,1,7,15,1,-1,-8,False,15,-8,0.5,7.671840904055744,7.19374728496908,4.0
1227,-11,-8,-2,1,11,7,-1,-2,False,11,-11,-0.625,7.190022849159004,6.754628043053148,-5.0
1228,-1,15,4,-1,-9,-8,0,1,False,15,-9,0.125,7.453426824526516,6.9731628404906765,1.0
1229,-15,1,-6,-4,-2,-2,4,-6,False,4,-15,-3.75,5.67576300723398,6.5,-30.0
1230,-2,18,2,-2,-4,-6,0,5,False,18,-6,1.375,7.539183358579741,7.185053931599957,11.0
1231,9,0,4,5,17,31,10,-4,False,31,-4,9.0,10.954451150103322,13.638181696985855,72.0
1232,5,15,3,5,-2,1,-3,1,False,15,-3,3.125,5.617256574927962,6.113509630318742,25.0
1233,-22,-17,-4,-7,-5,-8,-2,6,False,6,-22,-7.375,8.716773649530131,10.994316713648011,-59.0
1234,22,22,5,4,11,5,-1,0,False,22,-1,8.5,9.086882225022428,12.020815280171307,68.0
1235,15,2,1,-3,6,-7,-2,2,False,15,-7,1.75,6.627863262664025,6.442049363362563,14.0
1236,13,-3,4,2,-6,-5,-8,-22,False,13,-22,-3.125,10.204165815979275,10.043654713300333,-25.0
1237,-6,-9,-6,-3,-7,-4,-3,1,False,1,-9,-4.625,3.0676887530703443,5.44288526426931,-37.0
1238,-15,1,-1,-2,5,1,2,5,False,5,-15,-0.5,6.369570517030843,5.979130371550699,-4.0
1239,8,-12,-11,-6,-15,-9,-9,-16,False,8,-16,-8.75,7.516648189186454,11.224972160321824,-70.0
1240,-42,-45,-6,0,4,6,4,-3,False,6,-45,-10.25,20.913085445652033,22.085062825357777,-82.0
1241,23,2,-1,-3,-10,-7,-3,5,False,23,-10,0.75,10.152409988344077,9.526279441628825,6.0
1242,4,13,-3,-6,-4,-1,8,1,False,13,-6,1.5,6.48074069840786,6.244997998398398,12.0
1243,-3,-2,1,-2,2,2,-3,-5,False,2,-5,-1.25,2.6049403612586386,2.7386127875258306,-10.0
1244,-1,-5,4,-3,-8,13,4,11,False,13,-8,1.875,7.4916620318858484,7.254309064273454,15.0
1245,-15,-2,-9,-4,13,-1,2,-3,False,13,-15,-2.375,8.14050717970675,7.976528066771908,-19.0
1246,11,7,-1,7,7,13,5,0,False,13,-1,6.125,4.823676724538776,7.607562027351469,49.0
1318,-11,6,4,9,15,6,4,12,False,15,-11,5.625,7.763237542601485,9.185586535436919,45.0
1319,-1,2,-4,-1,1,2,6,13,False,13,-4,2.25,5.230405611149374,5.385164807134504,18.0
1320,-8,-6,1,0,-5,-3,-4,-6,False,1,-8,-3.875,3.090885217631258,4.834769901453429,-31.0
1321,2,-1,-4,-1,6,1,0,9,False,9,-4,1.5,4.174754056057845,4.183300132670378,12.0
1322,-8,-8,-2,-5,-3,-3,-2,-4,False,-2,-8,-4.375,2.445841952609133,4.937104414532874,-35.0
1323,6,9,-2,-1,-8,1,2,2,False,9,-8,1.125,5.139135558215436,4.937104414532874,9.0
1324,-5,6,5,-3,0,1,-6,-12,False,6,-12,-1.75,5.994044663544927,5.873670062235365,-14.0
1325,-11,-5,-2,-3,-2,-2,-2,-4,False,-2,-11,-3.875,3.090885217631258,4.834769901453429,-31.0
1326,-4,0,-2,-6,-8,-5,-1,3,False,3,-8,-2.875,3.563204817496262,4.401704215414752,-23.0
1327,-1,8,1,2,-2,1,0,-2,False,8,-2,0.875,3.2265638511757806,3.142451272494134,7.0
1328,20,1,-4,0,4,-1,0,1,False,20,-4,2.625,7.366672053434789,7.3739406018763125,21.0
1329,13,-7,-1,4,-10,0,1,1,False,13,-10,0.125,6.937218462755804,6.490377492873585,1.0
1330,-3,-25,-4,3,9,1,0,2,False,9,-25,-2.125,10.06319318819117,9.650129532809391,-17.0
1331,-9,6,2,16,14,3,-2,-2,False,16,-9,3.5,8.383657572069263,8.587782018658833,28.0
1332,-6,7,-3,-1,1,2,-3,-6,False,7,-6,-1.125,4.38951673226759,4.257346591481601,-9.0
1333,-9,-12,0,-4,-2,0,1,0,False,1,-12,-3.25,4.803272693844122,5.545268253204709,-26.0
1334,-6,0,0,5,-5,-2,2,6,False,6,-6,0.0,4.309458036856673,4.031128874149275,0.0
1335,10,5,7,-3,-4,-2,-5,-6,False,10,-6,0.25,6.1353775061406886,5.744562646538029,2.0
1336,-1,2,5,14,3,4,-3,1,False,14,-3,3.125,5.111262075065218,5.7118298293979315,25.0
1337,7,0,-5,-3,-3,3,1,1,False,7,-5,0.125,3.833592123769634,3.588175023601831,1.0
1338,-11,-13,-2,-3,-5,-5,-1,0,False,0,-13,-5.0,4.69041575982343,6.652067347825035,-40.0
1339,2,-8,-6,-11,-8,-16,-1,-9,False,2,-16,-7.125,5.617256574927962,8.852965604812887,-57.0
1340,-5,1,6,-1,0,-2,-4,-4,False,6,-5,-1.125,3.563204817496262,3.517811819867572,-9.0
1341,-1,3,-4,-3,-13,-5,0,3,False,3,-13,-2.5,5.18238775634773,5.454356057317857,-20.0
1342,3,-2,-9,-14,-7,-4,-2,0,False,3,-14,-4.375,5.423164600647327,6.698880503487131,-35.0
1343,1,8,11,1,5,3,-1,1,False,11,-1,3.625,4.103569874424672,5.2796780204857185,29.0
1344,-2,0,-2,-5,-6,-1,1,-1,False,1,-6,-2.0,2.390457218668787,3.0,-16.0
1345,0,3,-3,-1,5,4,-1,-3,False,5,-3,0.5,3.116774889895918,2.958039891549808,4.0
1346,5,10,5,2,-2,-4,-1,4,False,10,-4,2.375,4.565006649971686,4.886205071423016,19.0
1347,0,6,1,-8,5,1,-1,1,False,6,-8,0.625,4.240535680446853,4.0155946010522525,5.0
1348,-6,-3,-5,-4,-7,-3,0,1,False,1,-7,-3.375,2.774243783705493,4.257346591481601,-27.0
1349,7,0,1,19,24,5,1,0,False,24,0,7.125,9.311091696005821,11.252777434926898,57.0
1350,-3,-2,-2,-3,0,-2,-5,-1,False,0,-5,-2.25,1.4880476182856899,2.6457513110645907,-18.0
1351,0,3,-1,-3,0,-2,-1,0,False,3,-3,-0.5,1.7728105208558367,1.7320508075688772,-4.0
1352,2,2,-2,0,3,2,3,1,False,3,-2,1.375,1.6850180160122068,2.091650066335189,11.0
1353,-5,-10,-5,-8,-11,-3,-2,1,False,1,-11,-5.375,4.103569874424672,6.604922406811453,-43.0
1354,-3,-5,-5,-8,-2,-2,1,-1,False,1,-8,-3.125,2.7998724460742337,4.077376607575022,-25.0
1355,-3,-2,-2,-13,-4,1,0,1,False,1,-13,-2.75,4.527692569068709,5.049752469181039,-22.0
1356,-4,-7,-2,0,5,0,-2,-10,False,5,-10,-2.5,4.59813626840888,4.9749371855331,-20.0
1357,-2,2,-2,4,-8,-2,1,-6,False,4,-8,-1.625,3.9977672339873487,4.077376607575022,-13.0
1358,-29,-3,0,2,5,1,-2,-6,False,5,-29,-4.0,10.63686312513502,10.723805294763608,-32.0
1359,6,7,2,-3,-3,-2,-2,0,False,7,-3,0.625,3.9977672339873487,3.7914377220257753,5.0
1360,-15,-15,-3,0,-3,-2,0,1,False,1,-15,-4.625,6.566962768281849,7.6892782496148495,-37.0
1361,-6,-4,0,-1,3,-1,-1,-1,False,3,-6,-1.375,2.669269563007828,2.850438562747845,-11.0
1362,-14,-3,-5,3,-4,-1,-7,-12,False,3,-14,-5.375,5.578978401105349,7.4916620318858484,-43.0
1363,-5,-17,-4,2,13,3,0,3,False,13,-17,-0.625,8.60128727907299,8.070006195784487,-5.0
1364,-2,-6,-3,-8,-8,-3,0,7,False,7,-8,-2.875,4.911720676097125,5.4198708471697,-23.0
1365,-5,-4,-6,-5,-5,-1,-3,3,False,3,-6,-3.25,2.9640705601780613,4.272001872658765,-26.0
1366,15,10,14,0,3,-1,1,4,False,15,-1,5.75,6.363961030678928,8.276472678623424,46.0
1367,-2,3,4,2,3,0,-1,2,False,4,-2,1.375,2.1339098923270936,2.4238399287081647,11.0
1368,19,4,-4,4,3,0,-2,-4,False,19,-4,2.5,7.445036697597361,7.399324293474371,20.0
1369,-9,1,1,3,-1,-2,2,3,False,3,-9,-0.25,3.955105199973465,3.7080992435478315,-2.0
1370,23,5,-7,-5,-5,-3,0,-3,False,23,-7,0.625,9.767840820043817,9.1583295420071,5.0
1371,-19,-5,2,-7,-2,2,-2,-7,False,2,-19,-4.75,6.75594975875762,7.905694150420948,-38.0
1372,19,20,2,0,5,0,-1,9,False,20,-1,6.75,8.514693182963201,10.44030650891055,54.0
1373,6,8,0,2,-4,-3,1,4,False,8,-4,1.75,4.166190448976482,4.272001872658765,14.0
1374,14,3,-3,-2,-2,0,-1,3,False,14,-3,1.5,5.529143565818179,5.385164807134504,12.0
1375,17,10,4,4,4,4,-1,-3,False,17,-3,4.875,6.243568119044018,7.607562027351469,39.0
1376,0,-7,-1,5,-1,-1,-1,-7,False,5,-7,-1.625,3.8890872965260113,3.984344362627307,-13.0
1377,3,0,-2,4,-3,-1,-2,-7,False,4,-7,-1.0,3.4641016151377544,3.391164991562634,-8.0
1378,-12,-10,-9,-6,1,-1,0,-2,False,1,-12,-4.875,5.02671434864337,6.773108592072033,-39.0
1379,-1,0,-2,-11,-19,-2,-1,-6,False,0,-19,-5.25,6.627863262664025,8.12403840463596,-42.0
1380,-4,0,4,3,4,0,1,7,False,7,-4,1.875,3.3567628964311944,3.6571847095819483,15.0
1381,21,-3,-7,-3,-5,-3,-3,-9,False,21,-9,-1.5,9.365590516047865,8.888194417315589,-12.0
1382,-17,-3,8,2,16,2,0,21,False,21,-17,3.625,11.722231625663873,11.548809462451096,29.0
1383,-12,-16,0,3,9,2,-2,5,False,9,-16,-1.375,8.51783842465748,8.085480814398114,-11.0
1384,1,-11,-7,-6,-13,-5,-3,-9,False,1,-13,-6.625,4.470139019889969,7.834219807996199,-53.0
1385,5,11,0,1,5,1,-2,1,False,11,-2,2.75,4.0970372570571385,4.716990566028302,22.0
1386,-3,3,-3,-4,-7,-2,1,2,False,3,-7,-1.625,3.37797487937881,3.553167600887974,-13.0
1387,-3,-13,-10,-5,-3,-2,-2,-10,False,-2,-13,-6.0,4.342481186734475,7.245688373094719,-48.0
1388,12,12,6,4,1,2,3,6,False,12,1,5.75,4.234214381508266,6.98212002188447,46.0
1389,-1,1,-2,-5,-10,-6,0,10,False,10,-10,-1.625,5.926634795564849,5.777110004145672,-13.0
1390,-12,-11,-8,-6,-10,-5,-3,15,False,15,-12,-5.0,8.652002245558126,9.513148795220223,-40.0
1391,4,0,1,-1,2,0,0,1,False,4,-1,0.875,1.5526475085202969,1.695582495781317,7.0
1392,14,1,-1,0,-3,12,-2,-28,False,14,-28,-0.875,12.72160704134056,11.932099563781724,-7.0
1393,9,0,3,1,2,-4,-2,-19,False,9,-19,-1.25,8.137216091163225,7.713624310270756,-10.0
1394,-17,-2,5,5,3,-10,1,6,False,6,-17,-1.125,8.271076972541984,7.8182478855559445,-9.0
1395,15,5,4,11,8,10,-1,-15,False,15,-15,4.625,9.303417190934276,9.855201672213513,37.0
1396,2,-8,-7,-4,-7,-5,-4,-7,False,2,-8,-5.0,3.2071349029490923,5.830951894845301,-40.0
1397,-14,-7,-5,-9,-7,-7,-1,10,False,10,-14,-5.0,7.0710678118654755,8.2915619758885,-40.0
1398,18,17,17,15,18,13,2,-17,False,18,-17,10.375,12.258379058540209,15.463667094192115,83.0
1399,-10,-6,2,2,2,3,0,-8,False,3,-10,-1.875,5.249149590988185,5.25594901040716,-15.0
1400,-6,0,-5,-6,-5,3,-4,8,False,8,-6,-1.875,5.111262075065218,5.135659646043535,-15.0
1401,18,6,-1,-2,6,0,0,3,False,18,-2,3.75,6.519202405202649,7.158910531638177,30.0
1402,-7,-1,0,-1,0,-7,-3,-13,False,0,-13,-4.0,4.6291004988627575,5.894913061275798,-32.0
1403,-1,0,3,3,1,4,0,-8,False,4,-8,0.25,3.770183777256185,3.5355339059327378,2.0
1404,7,3,2,2,6,-1,1,1,False,7,-1,2.625,2.669269563007828,3.6228441865473595,21.0
1405,0,0,0,0,2,-4,0,-11,False,2,-11,-1.625,4.138236339311712,4.198213905936666,-13.0
1406,-1,-1,2,1,2,-1,0,6,False,6,-1,1.0,2.390457218668787,2.449489742783178,8.0
1407,-5,-5,-1,-1,-3,0,-1,9,False,9,-5,-0.875,4.421942042651783,4.227883631321941,-7.0
1408,1,18,6,0,0,2,1,3,False,18,0,3.875,6.0341291240504855,6.846531968814577,31.0
1409,-3,-1,-3,-1,-5,-2,-2,-2,False,-1,-5,-2.375,1.3024701806293193,2.669269563007828,-19.0
1410,-18,-11,-3,0,7,1,-1,7,False,7,-18,-2.25,8.564878449642052,8.32165848854662,-18.0
1411,0,-4,-1,-1,-3,-1,0,7,False,7,-4,-0.375,3.2923070504261465,3.1024184114977142,-3.0
1412,-2,7,-1,-3,0,1,0,0,False,7,-3,0.25,3.011881234615431,2.8284271247461903,2.0
1413,-3,-2,-1,-1,-1,-4,-3,-4,False,-1,-4,-2.375,1.3024701806293193,2.669269563007828,-19.0
1414,-11,-20,-8,-5,-9,-3,0,1,False,1,-20,-6.875,6.791538853603062,9.360822613424528,-55.0
1415,4,16,8,1,1,2,-2,-14,False,16,-14,2.0,8.535639569308374,8.231038816577165,16.0
1416,14,1,-2,-1,-4,0,2,-1,False,14,-4,1.125,5.514591035218685,5.2796780204857185,9.0
1417,-3,1,2,-2,1,-1,0,-1,False,2,-3,-0.375,1.6850180160122068,1.620185174601965,-3.0
1418,0,1,1,2,8,1,0,3,False,8,0,2.0,2.6186146828319083,3.1622776601683795,16.0
1419,-6,-3,0,4,16,3,2,8,False,16,-6,3.0,6.782329983125268,7.0178344238090995,24.0
1420,-24,-10,-1,-2,-1,-3,-4,-7,False,-1,-24,-6.5,7.727501906456297,9.72111104761179,-52.0
1421,-9,-5,-1,9,6,2,1,3,False,9,-9,0.75,5.775564289066727,5.454356057317857,6.0
1422,-4,-2,-1,-2,-4,-2,0,3,False,3,-4,-1.5,2.2677868380553634,2.598076211353316,-12.0
1423,-2,-1,2,-1,-7,-2,-4,-1,False,2,-7,-2.0,2.6186146828319083,3.1622776601683795,-16.0
1424,3,5,2,1,-4,-1,2,-4,False,5,-4,0.5,3.251373336211726,3.082207001484488,4.0
1425,-12,6,-1,0,3,-1,-1,-3,False,6,-12,-1.125,5.221863378417434,5.0124844139408555,-9.0
1426,6,4,4,8,-8,1,1,3,False,8,-8,2.375,4.808846015417836,5.086747487343951,19.0
1427,-14,-14,-7,-3,-3,0,0,-1,False,0,-14,-5.25,5.849297882163783,7.582875444051551,-42.0
1428,12,0,-3,10,28,1,-1,1,False,28,-3,6.0,10.36477551269546,11.40175425099138,48.0
1429,8,0,-2,-3,-7,-2,0,-6,False,8,-7,-1.5,4.59813626840888,4.55521678957215,-12.0
1430,4,2,-1,-4,-10,-3,1,-10,False,4,-10,-2.625,5.2355242608275905,5.5565276927232174,-21.0
1431,18,2,2,24,29,2,1,8,False,29,1,10.75,11.297913840300657,15.074813431681335,86.0
1432,33,10,-1,-4,2,-2,-2,16,False,33,-4,6.5,12.739141034061687,13.573871960498227,52.0
1433,-1,-3,-4,-5,-25,-8,-4,15,False,15,-25,-4.375,10.875102626773558,11.073617295175051,-35.0
1434,-27,-14,-2,-6,-10,-3,-1,-8,False,-1,-27,-8.875,8.526220063511648,11.932099563781724,-71.0
1435,-3,-4,-5,-21,-29,-11,-3,-17,False,-3,-29,-11.625,9.782455140271718,14.794424625513491,-93.0
1436,-5,-2,-2,-6,4,-1,-1,-6,False,4,-6,-2.375,3.3354160160315836,3.9210967853395307,-19.0
1437,3,-4,-1,-3,-3,3,-2,-5,False,3,-5,-1.5,3.0237157840738176,3.2015621187164243,-12.0
1438,18,-1,1,0,-7,0,-2,0,False,18,-7,1.125,7.259230577094832,6.882949948968102,9.0
1439,16,14,2,2,5,4,0,9,False,16,0,6.5,5.903993805649092,8.52936105461599,52.0
1440,-25,3,0,-4,-14,-4,-1,-3,False,3,-25,-6.0,9.133924207511875,10.44030650891055,-48.0
1441,3,-6,-3,-4,1,-1,0,-7,False,3,-7,-2.125,3.48209706929603,3.8890872965260113,-17.0
1442,-3,-2,1,1,-11,0,-2,-7,False,1,-11,-2.875,4.189698250300543,4.860555523805895,-23.0
1443,-6,1,-1,-6,-2,0,-2,-5,False,1,-6,-2.625,2.7222627143085005,3.6571847095819483,-21.0
1444,-16,-3,-1,3,6,-5,-1,-5,False,6,-16,-2.75,6.562882641905809,6.726812023536855,-22.0
1445,-2,-3,-3,-12,-5,-2,0,-1,False,0,-12,-3.5,3.7416573867739413,4.949747468305833,-28.0
1446,-7,3,0,-3,4,-1,-1,2,False,4,-7,-0.375,3.543101950067402,3.3354160160315836,-3.0
1447,3,0,-3,0,6,1,0,2,False,6,-3,1.125,2.6423744732991303,2.715695122800054,9.0
1448,-20,-9,-3,-7,-23,-2,1,-2,False,1,-23,-8.125,8.854982455415385,11.602801385872294,-65.0
1449,21,-6,2,7,11,5,-1,-3,False,21,-6,4.5,8.652002245558126,9.260129588726066,36.0
1450,13,10,5,3,2,-1,-1,1,False,13,-1,4.0,5.0990195135927845,6.224949798994366,32.0
1451,22,-17,-4,-7,-9,1,0,0,False,22,-17,-1.75,11.310551331768554,10.723805294763608,-14.0
1452,5,7,1,1,5,3,-2,-2,False,7,-2,2.25,3.3273756282434617,3.840572873934304,18.0
1453,-7,-6,-1,-4,-2,-4,0,-1,False,0,-7,-3.125,2.5319388392523003,3.9210967853395307,-25.0
1454,-12,-9,-4,2,7,0,-1,-5,False,7,-12,-2.75,6.08863109175031,6.324555320336759,-22.0
1455,-8,5,-4,-5,-5,0,1,3,False,5,-8,-1.625,4.533604683755678,4.541475531146237,-13.0
1456,9,5,5,10,10,1,-3,-1,False,10,-3,4.5,5.070925528371099,6.5383484153110105,36.0
1457,-12,0,-3,0,0,-1,-2,-1,False,0,-12,-2.375,4.033343171967536,4.458138625031752,-19.0
1458,9,2,-4,-3,-2,-1,2,3,False,9,-4,0.75,4.200340122282616,4.0,6.0
1459,-8,7,2,1,0,0,0,0,False,7,-8,0.25,4.0970372570571385,3.840572873934304,2.0
1460,4,0,-2,1,-2,-2,0,3,False,4,-2,0.25,2.3145502494313788,2.179449471770337,2.0
1461,-11,-4,0,-1,0,2,0,4,False,4,-11,-1.25,4.5591352563522705,4.444097208657794,-10.0
1462,-5,3,-2,0,1,0,-1,-4,False,3,-5,-1.0,2.6186146828319083,2.6457513110645907,-8.0
1463,7,-2,7,3,1,0,0,2,False,7,-2,2.25,3.284161123592185,3.8078865529319543,18.0
1464,2,-3,-3,-3,-2,1,-2,-1,False,2,-3,-1.375,1.922609833384967,2.2638462845343543,-11.0
1465,-15,-1,-2,2,3,2,0,0,False,3,-15,-1.375,5.755432216610669,5.5565276927232174,-11.0
1466,-3,4,1,3,1,-1,-2,3,False,4,-3,0.75,2.5495097567963922,2.5,6.0
1467,4,-8,-4,-1,4,0,1,-1,False,4,-8,-0.625,3.9977672339873487,3.7914377220257753,-5.0
1468,1,0,-11,-6,-2,-2,3,19,False,19,-11,0.25,8.74642784226795,8.18535277187245,2.0
1469,2,-2,-3,-4,-4,-1,0,3,False,3,-4,-1.125,2.6423744732991303,2.715695122800054,-9.0
1470,27,7,11,1,-2,2,2,4,False,27,-2,6.5,9.180725150319788,10.770329614269007,52.0
1471,-4,6,1,-1,-1,-1,1,-4,False,6,-4,-0.375,3.2043497223082786,3.020761493398643,-3.0
1472,13,22,10,2,2,-3,-3,-5,False,22,-5,4.75,9.437766079503591,10.024968827881711,38.0
1473,6,-4,-5,-8,-4,-4,-4,-2,False,6,-8,-3.125,4.051013982414068,4.911720676097125,-25.0
1474,0,-4,6,4,1,0,-1,-2,False,6,-4,0.5,3.2071349029490923,3.0413812651491097,4.0
1475,-21,-1,-1,1,-1,-2,-4,-2,False,1,-21,-3.875,7.0596944490739615,7.656696415556778,-31.0
1476,-15,-8,-3,-1,1,0,1,-7,False,1,-15,-4.0,5.631543812693435,6.614378277661476,-32.0
1477,-31,-17,-6,-1,0,0,-3,9,False,9,-31,-6.125,12.403196592583933,13.119641763401926,-49.0
1478,-35,5,3,1,3,0,-3,-4,False,5,-35,-3.75,12.991755627539884,12.718097341976904,-30.0
1479,7,-7,-8,-5,-4,0,2,-3,False,7,-8,-2.25,5.007137762377681,5.196152422706632,-18.0
1480,3,-14,-7,0,-2,-1,-1,-5,False,3,-14,-3.375,5.262739645035518,5.9686681931566605,-27.0
1481,24,15,10,2,2,1,0,-2,False,24,-2,6.5,9.071147352221454,10.688779163215974,52.0
1482,-4,-20,-8,-4,-3,-4,0,-15,False,0,-20,-7.25,6.819090848492928,9.656603957913983,-58.0
1483,31,37,9,2,0,0,1,-2,False,37,-2,9.75,15.397124035722664,17.392527130926087,78.0
1484,-16,-24,-18,-2,-1,0,0,9,False,9,-24,-6.5,11.36410388648648,12.459935794377111,-52.0
1485,-9,-17,-12,-2,-1,-2,-1,-2,False,-1,-17,-5.75,6.1353775061406886,8.12403840463596,-46.0
1486,16,4,2,0,-1,-1,-2,9,False,16,-2,3.375,6.232117273791125,6.73609679265374,27.0
1487,-8,5,3,-1,0,-2,0,-3,False,5,-8,-0.75,3.918819064098629,3.7416573867739413,-6.0
1488,-4,-6,-2,-4,-2,-1,0,-2,False,0,-6,-2.625,1.922609833384967,3.181980515339464,-21.0
1489,-10,-6,3,0,-2,1,-2,-7,False,3,-10,-2.875,4.421942042651783,5.0373604199024715,-23.0
1490,0,10,4,0,-2,1,-2,-8,False,10,-8,0.375,5.180664601601392,4.860555523805895,3.0
1491,-4,1,0,-3,-2,-2,-2,0,False,1,-4,-1.5,1.6903085094570331,2.179449471770337,-12.0
1492,20,0,0,-1,0,0,-1,3,False,20,-1,2.625,7.130167299179291,7.167635593415725,21.0
1493,-3,-13,2,0,0,0,-2,0,False,2,-13,-2.0,4.69041575982343,4.8218253804964775,-16.0
1494,15,12,5,1,-1,0,1,0,False,15,-1,4.125,6.104740546727366,7.044501401802686,33.0
1495,6,3,-7,-2,-1,1,1,5,False,6,-7,0.75,4.166190448976482,3.968626966596886,6.0
1496,-8,2,-4,2,3,0,-2,-1,False,3,-8,-1.0,3.664501525251617,3.5707142142714248,-8.0
1497,-17,-4,2,0,0,-1,0,-9,False,2,-17,-3.625,6.3905622377288305,6.991065727054782,-29.0
1498,-22,-3,-4,-3,-2,-2,-2,-8,False,-2,-22,-5.75,6.860862086606068,8.616843969807043,-46.0
1499,0,1,-5,1,-2,-1,-2,0,False,1,-5,-1.0,2.0,2.1213203435596424,-8.0
1500,24,12,6,0,0,-1,-2,4,False,24,-2,5.375,8.830749846821778,9.855201672213513,43.0
1501,0,-4,-7,-4,-3,-1,-1,1,False,1,-7,-2.375,2.615202805574687,3.409545424246464,-19.0
1502,1,-13,-4,-4,-1,-2,-2,-3,False,1,-13,-3.5,4.174754056057845,5.244044240850758,-28.0
1503,14,-6,-7,-3,-2,-3,0,-3,False,14,-7,-1.25,6.541078984824621,6.244997998398398,-10.0
1504,-2,7,14,4,2,2,0,-1,False,14,-2,3.25,5.203021100421232,5.852349955359813,26.0
1505,-9,6,-3,-2,0,-2,-1,1,False,6,-9,-1.25,4.200340122282616,4.123105625617661,-10.0
1506,-18,-31,-11,-4,-2,-1,0,-2,False,0,-31,-8.625,10.927520957916954,13.374415875095256,-69.0
1574,-6,2,-3,-7,-1,-2,-1,-2,False,2,-7,-2.5,2.8784916685156974,3.6742346141747673,-20.0
1575,7,2,-3,-3,-10,-6,0,3,False,7,-10,-1.25,5.391792704790177,5.196152422706632,-10.0
1576,12,12,-1,-2,-5,-4,-6,-4,False,12,-6,0.25,7.421012637870156,6.946221994724902,2.0
1577,6,2,-1,-4,-4,-5,-5,-21,False,6,-21,-4.0,7.892129895390362,8.396427811873332,-32.0
1578,-3,4,4,3,3,1,-1,4,False,4,-3,1.875,2.6423744732991303,3.1024184114977142,15.0
1579,0,2,-5,-3,-4,-1,-2,3,False,3,-5,-1.25,2.8157719063467175,2.9154759474226504,-10.0
1580,2,-6,-5,-1,-1,0,-1,0,False,2,-6,-1.5,2.6726124191242437,2.9154759474226504,-12.0
1581,0,-7,-6,-1,2,1,0,5,False,5,-7,-0.75,3.9910614413425693,3.8078865529319543,-6.0
1582,14,7,-7,-2,-1,-1,3,9,False,14,-7,2.75,6.860862086606068,6.98212002188447,22.0
1583,-5,-9,1,0,1,-2,-3,0,False,1,-9,-2.125,3.48209706929603,3.8890872965260113,-17.0
1584,-4,-12,-2,-4,-6,-3,-3,-2,False,-2,-12,-4.5,3.295017884191656,5.454356057317857,-36.0
1585,-4,0,0,3,15,2,-2,5,False,15,-4,2.375,5.829420456369815,5.947688626685159,19.0
1586,4,2,-4,-4,0,-1,2,1,False,4,-4,0.0,2.8784916685156974,2.692582403567252,0.0
1587,1,-5,-5,2,2,0,0,2,False,2,-5,-0.375,2.9730936268953445,2.806243040080456,-3.0
1588,-5,6,-1,3,5,2,-2,-4,False,6,-5,0.5,4.105745103771404,3.872983346207417,4.0
1589,-19,-24,1,-4,-3,1,1,1,False,1,-24,-5.75,10.010708552059924,10.988630487917955,-46.0
1590,-3,-17,-3,-1,-2,-2,0,-7,False,0,-17,-4.375,5.50162313711664,6.754628043053148,-35.0
1591,-14,1,1,-4,-2,0,0,1,False,1,-14,-2.125,5.111262075065218,5.232112384114087,-17.0
1592,7,14,1,2,4,0,-2,-6,False,14,-6,2.5,6.047431568147635,6.18465843842649,20.0
1593,0,-10,-1,-1,-1,-1,-2,-4,False,0,-10,-2.5,3.251373336211726,3.9370039370059056,-20.0
1594,3,2,2,-4,-5,-6,0,6,False,6,-6,-0.25,4.301162633521313,4.031128874149275,-2.0
1595,4,0,-1,-4,10,1,-2,-1,False,10,-4,0.875,4.356850107261306,4.168333000133266,7.0
1596,-2,-1,3,1,-21,3,1,3,False,3,-21,-1.625,8.05228450281569,7.705517503711221,-13.0
1597,-2,3,-4,3,-7,2,0,1,False,3,-7,-0.5,3.585685828003181,3.391164991562634,-4.0
1598,-4,8,5,-1,8,-2,-3,-6,False,8,-6,0.625,5.5533130394644346,5.232112384114087,5.0
1599,-1,17,-6,-2,-7,-4,0,-8,False,17,-8,-1.375,7.963084470587655,7.574628703771558,-11.0
1600,-4,-7,-7,-1,-2,0,1,5,False,5,-7,-1.875,4.086126352846736,4.257346591481601,-15.0
1601,6,0,-5,1,3,-3,-3,-3,False,6,-5,-0.5,3.7032803990902057,3.5,-4.0
1602,-9,-5,-3,-5,0,-2,-1,9,False,9,-9,-2.0,5.264435935053794,5.315072906367325,-16.0
1603,0,7,11,6,-11,1,3,8,False,11,-11,3.125,6.791538853603062,7.079901129253148,25.0
1604,-12,-7,4,-4,4,0,-4,-7,False,4,-12,-3.25,5.625198409199194,6.18465843842649,-26.0
1605,17,-3,4,-11,-17,-1,0,2,False,17,-17,-1.125,10.13392463813643,9.545941546018392,-9.0
1606,-7,-2,-4,11,20,5,1,-3,False,20,-7,2.625,9.022788609167028,8.838834764831844,21.0
1607,4,-4,-6,4,2,0,-1,2,False,4,-6,0.125,3.6425069859723185,3.409545424246464,1.0
1608,2,2,0,-4,-8,-3,2,-2,False,2,-8,-1.375,3.583194903195431,3.6228441865473595,-11.0
1609,0,1,0,8,1,0,-4,-3,False,8,-4,0.375,3.583194903195431,3.3726843908080104,3.0
1610,-4,-1,-5,0,-3,0,-1,-3,False,0,-5,-2.125,1.8850918886280925,2.7613402542968153,-17.0
1611,2,6,-7,-3,7,0,-2,-2,False,7,-7,0.125,4.703721930556695,4.401704215414752,1.0
