,EMG 1,EMG 2,EMG 3,EMG 4,EMG 5,EMG 6,EMG 7,EMG 8,Eat,Max,Min,Mean,StD,RMS,FFT
970,-3,-3,-4,-1,2,0,-1,5,True,5,-4,-0.625,2.9730936268953445,2.850438562747845,-5.0
971,-24,-11,-9,-5,-5,0,5,2,True,5,-24,-5.875,9.109453488390116,10.350120772242226,-47.0
972,9,9,0,2,9,2,0,6,True,9,0,4.625,4.0686080455816125,5.989574275355469,37.0
973,3,-13,-14,-9,-4,-2,-3,4,True,4,-14,-4.75,6.75594975875762,7.905694150420948,-38.0
974,2,5,11,3,31,7,-2,4,True,31,-2,7.625,10.169105874447089,12.19118534023661,61.0
975,4,13,1,1,15,2,1,2,True,15,1,4.875,5.743008171432708,7.254309064273454,39.0
976,-8,-23,-3,1,8,10,-3,-8,True,10,-23,-3.25,10.38886766825776,10.246950765959598,-26.0
977,5,7,-5,-4,-7,-3,-6,-6,True,7,-7,-2.375,5.343554194407635,5.533985905294664,-19.0
978,-10,-2,-1,-2,-7,-10,-1,-6,True,-1,-10,-4.875,3.8706773124535783,6.072478900745559,-39.0
979,0,-6,-8,-5,-13,-2,-3,-6,True,0,-13,-5.375,3.9977672339873487,6.547900426854397,-43.0
980,1,1,4,2,-4,-4,2,0,True,4,-4,0.25,2.866057521105554,2.692582403567252,2.0
981,4,6,1,-2,0,-1,1,-2,True,6,-2,0.875,2.850438562747845,2.806243040080456,7.0
982,3,-9,0,13,30,6,0,1,True,30,-9,5.5,11.674147261608201,12.227019260637483,44.0
983,-10,8,6,3,4,1,2,8,True,8,-10,2.75,5.775564289066727,6.06217782649107,22.0
984,11,-5,-7,-10,-30,-11,-5,8,True,11,-30,-6.125,12.563410592442073,13.252358280698571,-49.0
985,-7,-1,-2,0,-2,-3,-7,-11,True,0,-11,-4.125,3.7961446607992015,5.44288526426931,-33.0
986,-4,-3,-2,-4,-8,-5,-5,-11,True,-2,-11,-5.25,2.9154759474226504,5.916079783099616,-42.0
987,9,9,-3,-3,-2,-2,-1,-15,True,9,-15,-1.0,7.615773105863909,7.19374728496908,-8.0
988,-6,10,3,-1,-11,-1,-4,-1,True,10,-11,-1.375,6.2091522310675735,5.968668193156661,-11.0
989,-3,-4,-3,3,-3,-4,-3,8,True,8,-4,-1.125,4.323936698360485,4.198213905936666,-9.0
990,-4,-4,-3,-5,0,4,0,-6,True,4,-6,-2.25,3.3273756282434617,3.840572873934304,-18.0
991,-4,-12,-12,-6,-3,3,-2,4,True,4,-12,-4.0,5.976143046671968,6.87386354243376,-32.0
992,6,-3,-2,-7,-12,-3,0,-5,True,6,-12,-3.25,5.230405611149374,5.873670062235365,-26.0
993,-10,-22,-7,-3,1,-2,0,-5,True,1,-22,-6.0,7.406560798180411,9.16515138991168,-48.0
994,3,4,-5,-1,-5,-1,-2,-3,True,4,-5,-1.25,3.3273756282434617,3.3541019662496847,-10.0
995,2,-10,-2,-1,-1,-1,-2,2,True,2,-10,-1.625,3.7392703642746743,3.856812155135378,-13.0
996,-15,2,2,4,-9,-4,1,15,True,15,-15,-0.5,9.023778112773575,8.455767262643882,-4.0
997,5,17,10,1,1,1,-1,-1,True,17,-1,4.125,6.356942211921883,7.237057413065064,33.0
998,15,-16,-1,1,1,0,3,24,True,24,-16,3.375,11.819324370344887,11.559628021696891,27.0
999,-9,5,-6,-1,5,4,1,3,True,5,-9,0.25,5.257647491307984,4.924428900898052,2.0
1000,0,6,3,3,0,-4,-5,-17,True,6,-17,-1.75,7.166389806390862,6.928203230275509,-14.0
1001,1,-5,2,3,-9,-5,0,-7,True,3,-9,-2.5,4.535573676110727,4.924428900898052,-20.0
1002,-10,-1,3,6,27,1,-8,-31,True,27,-31,-1.625,16.38760420038791,15.415090009467995,-13.0
1003,-14,-5,-3,-3,-5,1,0,-14,True,1,-14,-5.375,5.730557190560593,7.591113225344488,-43.0
1004,10,-11,-6,-8,-8,-4,-1,3,True,10,-11,-3.125,6.895909760761913,7.167635593415725,-25.0
1005,-6,-12,-1,-1,-3,2,1,1,True,2,-12,-2.375,4.657942525560891,4.962358310319802,-19.0
1006,-2,3,7,-1,-7,-2,0,5,True,7,-7,0.375,4.470139019889969,4.198213905936666,3.0
1007,5,-5,-1,-1,-9,-3,1,6,True,6,-9,-0.875,4.969550137731641,4.7302219821061255,-7.0
1008,-2,3,5,1,3,-2,-2,-11,True,5,-11,-0.625,4.983902658989812,4.703721930556695,-5.0
1009,-6,0,-2,-2,-5,0,1,-1,True,1,-6,-1.875,2.4748737341529163,2.979093821953246,-15.0
1010,21,12,-8,-6,-4,0,-3,-5,True,21,-8,0.875,10.204165815979275,9.585144756340407,7.0
1011,-5,6,1,-2,-3,0,0,-3,True,6,-5,-0.75,3.3700360320244136,3.24037034920393,-6.0
1012,-17,8,7,-1,0,-2,-6,-22,True,8,-22,-4.125,10.629305850202206,10.764525070805492,-33.0
1013,20,-7,-5,-4,6,7,2,10,True,20,-7,3.625,9.054399088682962,9.212762886344139,29.0
1014,-9,-10,-5,-2,5,-2,-4,-10,True,5,-10,-4.625,5.125217765408329,6.661456297237114,-37.0
1015,-1,2,1,-1,-10,0,2,5,True,5,-10,-0.25,4.399675312695569,4.123105625617661,-2.0
1016,-1,-5,2,7,4,5,-2,0,True,7,-5,1.25,3.9910614413425693,3.9370039370059056,10.0
1017,-3,-5,-5,-2,-1,-2,1,4,True,4,-5,-1.625,3.020761493398643,3.2596012026013246,-13.0
1018,-7,0,16,0,0,2,2,9,True,16,-7,2.75,6.902380541730305,7.0178344238090995,22.0
1019,15,28,16,4,-1,0,-2,4,True,28,-2,8.0,10.623424252901833,12.757350822173073,64.0
1020,8,0,-6,-4,6,1,2,8,True,8,-6,1.875,5.249149590988185,5.25594901040716,15.0
1021,-17,-6,-6,-5,-9,-6,-1,-1,True,-1,-17,-6.375,5.069164484550543,7.945124291035352,-51.0
1022,-6,0,-1,0,-4,-1,-1,2,True,2,-6,-1.375,2.5035688811888406,2.715695122800054,-11.0
1023,4,2,-1,-3,17,5,1,-3,True,17,-3,2.75,6.475227519444504,6.652067347825035,22.0
1024,0,-9,-5,3,-5,-6,-6,-7,True,3,-9,-4.375,3.9256482631170977,5.7118298293979315,-35.0
1025,-5,-4,-5,-1,-1,-4,-1,-6,True,-1,-6,-3.375,2.0658792662827956,3.8890872965260113,-27.0
1026,6,-4,-8,-5,-2,-1,-2,4,True,6,-8,-1.5,4.59813626840888,4.55521678957215,-12.0
1027,4,-20,5,3,1,-1,-1,-2,True,5,-20,-1.375,7.945124291035352,7.558108228915487,-11.0
1028,-4,-5,-9,-2,-2,-2,1,-3,True,1,-9,-3.25,2.9154759474226504,4.242640687119285,-26.0
1029,-5,16,-4,-4,-22,-7,1,8,True,16,-22,-2.125,11.179541263269385,10.671222985206523,-17.0
1030,-2,-1,-4,-4,-13,-6,0,-5,True,0,-13,-4.375,4.033343171967536,5.777110004145672,-35.0
1031,6,17,-4,0,2,1,-4,-13,True,17,-13,0.625,8.683934263092638,8.147085368400163,5.0
1032,-4,-1,-2,0,11,0,-1,2,True,11,-4,0.625,4.533604683755678,4.286607049870562,5.0
1033,-1,-4,-7,-5,2,5,1,4,True,5,-7,-0.625,4.373213921133975,4.138236339311712,-5.0
1034,7,-6,-4,-2,-2,1,0,2,True,7,-6,-0.5,4.0,3.774917217635375,-4.0
1035,6,3,3,-1,3,-3,-3,4,True,6,-3,1.5,3.3806170189140663,3.5,12.0
1036,-11,-10,0,-7,-11,1,-2,-15,True,1,-15,-6.875,5.89036743942418,8.810505093353047,-55.0
1037,-3,-11,1,8,9,2,3,7,True,9,-11,2.0,6.611677980232077,6.5,16.0
1038,5,4,2,-3,-5,-5,-4,-13,True,5,-13,-2.375,5.902481318419036,6.010407640085654,-19.0
1039,-3,1,-2,-6,-10,-5,0,7,True,7,-10,-2.25,5.1199888392735495,5.291502622129181,-18.0
1040,2,0,2,-1,2,3,2,6,True,6,-1,2.0,2.0701966780270626,2.7838821814150108,16.0
1247,-7,-6,-2,-4,-2,-1,1,3,True,3,-7,-2.25,3.3700360320244136,3.872983346207417,-18.0
1248,-11,1,-1,0,-3,-5,-3,3,True,3,-11,-2.375,4.307385683749649,4.677071733467427,-19.0
1249,-2,11,6,0,-2,-8,-6,-4,True,11,-8,-0.625,6.300510183423924,5.926634795564849,-5.0
1250,8,0,-4,-2,-3,-1,-2,6,True,8,-4,0.25,4.367084676466506,4.092676385936225,2.0
1251,-12,-23,-12,-6,-1,5,0,1,True,5,-23,-6.0,9.19627253681776,10.488088481701515,-48.0
1252,4,7,-10,-4,2,-3,-3,-2,True,7,-10,-1.125,5.303300858899107,5.086747487343951,-9.0
1253,-11,16,6,4,25,4,4,12,True,25,-11,7.5,10.555973258234951,12.399596767637245,60.0
1254,-17,-20,-4,-1,-11,-5,-1,5,True,5,-20,-6.75,8.564878449642052,10.476163419878482,-54.0
1255,-4,1,6,8,11,0,4,-4,True,11,-4,2.75,5.4707011825333165,5.809475019311125,22.0
1256,-3,-7,1,4,-14,3,-3,9,True,9,-14,-1.25,7.146427679017578,6.800735254367722,-10.0
1257,-13,-2,-3,-4,-10,1,3,1,True,3,-13,-3.375,5.578978401105349,6.214901447328026,-27.0
1258,12,9,6,-2,23,7,3,3,True,23,-2,7.625,7.520210863305059,10.374246960623214,61.0
1259,-14,-22,-5,-3,-15,-2,-7,-3,True,-2,-22,-8.875,7.278883352351709,11.185928660598547,-71.0
1260,-13,-41,-7,-7,-14,-8,-3,-3,True,-3,-41,-12.0,12.386628735397352,16.680827317612277,-96.0
1261,35,27,2,-11,-24,-5,0,5,True,35,-24,3.625,19.272018946797303,18.388175548433292,29.0
1262,18,-6,0,4,-3,3,0,0,True,18,-6,2.0,7.191264542087553,7.0178344238090995,16.0
1263,9,4,3,-4,-5,7,0,-5,True,9,-5,1.125,5.488624600025037,5.25594901040716,9.0
1264,-40,-9,-4,5,26,0,4,-6,True,26,-40,-3.0,18.431339769921387,17.5,-24.0
1265,4,24,-1,-15,-17,-30,-1,3,True,24,-30,-4.125,16.391962316069073,15.878444508200417,-33.0
1266,11,6,3,4,0,-4,-5,-10,True,11,-10,0.625,6.759913355319621,6.354132513569417,5.0
1267,-16,-11,0,-2,-4,-10,-2,-1,True,0,-16,-5.75,5.824823725107175,7.92148975887743,-46.0
1268,5,-5,-6,-5,-12,-6,-2,-7,True,5,-12,-4.75,4.832922806867792,6.557438524302,-38.0
1269,-23,-14,-6,4,2,2,-5,-21,True,4,-23,-7.625,10.595652747370364,12.5049990003998,-61.0
1270,11,3,1,-3,-4,-8,-4,8,True,11,-8,0.5,6.524678426668135,6.123724356957945,4.0
1271,-20,-18,-1,27,83,10,-7,9,True,83,-20,10.375,33.1918126737819,32.735683893879475,83.0
1272,-26,-2,-1,-8,-5,5,6,-1,True,6,-26,-4.0,10.028530728448139,10.198039027185569,-32.0
1273,-5,4,-1,17,59,16,3,7,True,59,-5,12.5,20.269611314900512,22.71012989835153,100.0
1274,33,14,5,0,-2,6,-12,-6,True,33,-12,4.75,13.884729535922343,13.82931668593933,38.0
1275,13,1,0,14,42,4,5,-2,True,42,-2,9.625,14.312207576551064,16.488632447841148,77.0
1276,19,7,-5,-24,-7,-3,13,4,True,19,-24,0.5,13.373748272535373,12.519984025548915,4.0
1277,31,17,1,-21,-52,-7,27,-4,True,31,-52,-1.0,27.208192043678945,25.470571253900058,-8.0
1278,-20,-12,6,31,45,17,-3,13,True,45,-20,9.625,21.685660173092657,22.452728119317705,77.0
1279,-2,-5,3,-10,-25,-7,-14,2,True,3,-25,-7.25,9.192388155425117,11.247221879201993,-58.0
1280,-31,-13,-2,-2,7,-2,-18,-6,True,7,-31,-8.375,11.891623702662066,13.923900315644321,-67.0
1281,17,3,0,10,32,7,-13,-4,True,32,-13,6.5,13.721724173212136,14.38749456993816,52.0
1282,-17,-11,-2,-5,-23,-8,15,-1,True,15,-23,-6.5,11.464230084422216,12.539936203984453,-52.0
1283,13,2,-7,-15,-52,-6,-7,-5,True,13,-52,-9.625,18.97319537814184,20.189725109569967,-77.0
1284,-10,0,2,8,13,0,3,11,True,13,-10,3.375,7.327784697398564,7.640353394968063,27.0
1285,-2,-19,-2,-11,-39,-10,-10,0,True,0,-39,-11.625,12.70475164203198,16.6245300685463,-93.0
1286,7,3,-2,8,13,-3,5,1,True,13,-3,4.0,5.371884479132333,6.422616289332565,32.0
1287,34,47,3,-6,-17,-16,0,-9,True,47,-17,4.5,23.52506262326567,22.4610774452162,36.0
1288,5,1,-8,-9,-21,-11,-8,-4,True,5,-21,-6.875,7.881941385217223,10.080922576827977,-55.0
1289,-28,-29,-2,8,4,4,1,-1,True,8,-29,-5.375,14.61835929820541,14.692685254915114,-43.0
1290,3,9,-2,-6,-20,-7,-5,-1,True,9,-20,-3.625,8.450486038430824,8.696263565463044,-29.0
1291,-7,10,-1,-10,-55,-11,7,3,True,10,-55,-8.0,20.500871061633315,20.778594755180148,-64.0
1292,-9,-7,-1,3,27,15,9,4,True,27,-9,5.125,11.837440601751714,12.20143434191243,41.0
1293,-7,-3,-4,-10,-8,-3,-3,-8,True,-3,-10,-5.75,2.8157719063467175,6.324555320336759,-46.0
1294,20,12,-2,-6,-9,-4,-4,-6,True,20,-9,0.125,10.232127274981902,9.572094859538323,1.0
1295,-12,6,5,-4,3,3,-3,4,True,6,-12,0.25,6.1353775061406886,5.744562646538029,2.0
1296,10,-12,2,6,9,28,1,-13,True,28,-13,3.875,13.08693459687398,12.840366038396258,31.0
1297,-12,-20,0,2,-9,-6,0,-6,True,2,-20,-6.375,7.327784697398564,9.360822613424528,-51.0
1298,-34,-6,17,8,10,-4,3,27,True,27,-34,2.625,18.298614311315646,17.31689926054893,21.0
1299,10,15,-6,-7,-10,-10,-6,-18,True,15,-18,-4.0,10.967484410096706,11.01135777277262,-32.0
1300,-19,-16,4,8,12,1,0,7,True,12,-19,-0.375,11.27497228377968,10.553435459602717,-3.0
1301,-38,-20,10,6,2,4,5,5,True,10,-38,-3.25,16.756661788247513,16.00781059358212,-26.0
1302,16,18,-9,-5,-4,-1,-3,-11,True,18,-11,0.125,10.90789360312718,10.204165815979275,1.0
1303,25,5,0,1,-6,-2,-3,-7,True,25,-7,1.625,10.197163471139552,9.676001240181813,13.0
1304,3,-13,-3,-3,-2,0,-4,-4,True,3,-13,-3.25,4.590362575159894,5.385164807134504,-26.0
1305,18,16,-5,-2,-6,-6,-4,5,True,18,-6,2.0,9.92831448793946,9.5,16.0
1306,-7,-13,2,-2,1,12,5,-1,True,12,-13,-0.375,7.520210863305059,7.044501401802686,-3.0
1307,2,4,3,-8,-16,-3,-1,-2,True,4,-16,-2.625,6.631903411324901,6.73609679265374,-21.0
1308,-10,-14,-11,-8,-9,-2,-7,-20,True,-2,-20,-10.125,5.276294695549682,11.26388032606881,-81.0
1309,18,5,-5,-3,-6,-5,-3,1,True,18,-6,0.25,8.048957341526558,7.533259586659682,2.0
1310,18,15,-5,-6,-8,-4,-3,0,True,18,-8,0.875,9.948976975405202,9.347459547919959,7.0
1311,1,-3,7,4,6,5,-5,-10,True,7,-10,0.625,6.06953752062591,5.7118298293979315,5.0
1312,-11,-5,1,-2,-1,-7,-2,2,True,2,-11,-3.125,4.323936698360485,5.111262075065218,-25.0
1313,-5,-13,-6,-3,9,6,-2,-2,True,9,-13,-2.0,6.8868404532536855,6.745368781616021,-16.0
1314,8,6,-2,1,-5,-8,-2,7,True,8,-8,0.625,5.902481318419036,5.5565276927232174,5.0
1315,-9,0,4,10,8,2,-4,-8,True,10,-9,0.375,7.0089228844380935,6.566962768281849,3.0
1316,8,8,-2,-4,-5,-2,0,-4,True,8,-5,-0.125,5.249149590988185,4.911720676097125,-1.0
1317,-5,-9,-9,-12,-15,-6,-5,-10,True,-5,-15,-8.875,3.5228843701879127,9.467048114380743,-71.0
1507,-56,-28,1,2,1,2,0,1,True,2,-56,-9.625,21.347047303349203,22.16697994766089,-77.0
1508,34,22,-8,-6,-3,-5,-3,1,True,34,-8,4.0,15.380878667079736,14.933184523068078,32.0
1509,24,-10,-1,1,15,4,0,-3,True,24,-10,3.75,10.793516572461451,10.770329614269007,30.0
1510,0,14,4,5,4,3,0,0,True,14,0,3.75,4.621378891320518,5.722761571129799,30.0
1511,8,15,1,-2,-7,-4,-3,-2,True,15,-7,0.75,7.245688373094719,6.819090848492928,6.0
1512,-12,-10,-3,-2,-2,-1,1,-2,True,1,-12,-3.875,4.580626906564522,5.777110004145672,-31.0
1513,-12,16,18,3,-1,-2,-3,-4,True,18,-12,1.875,10.24607938955886,9.766012492312305,15.0
1514,-6,0,9,0,-3,0,-2,-20,True,9,-20,-2.75,8.18971480403491,8.139410298049853,-22.0
1515,-21,5,-4,-2,-4,-2,-2,-6,True,5,-21,-4.5,7.406560798180411,8.261355820929152,-36.0
1516,-10,-4,-9,-3,-1,0,1,12,True,12,-10,-1.75,6.840008354213778,6.6332495807108,-14.0
1517,6,1,9,3,3,5,-1,-2,True,9,-2,3.0,3.664501525251617,4.55521678957215,24.0
1518,-7,-4,-2,0,-1,1,0,5,True,5,-7,-1.0,3.5456210417116734,3.4641016151377544,-8.0
1519,8,1,-11,-4,-6,-5,-1,6,True,8,-11,-1.5,6.347102826149446,6.123724356957945,-12.0
1520,-4,-6,0,1,2,-1,0,1,True,2,-6,-0.875,2.748376143938713,2.715695122800054,-7.0
1521,47,-10,-9,-2,-3,-1,0,2,True,47,-10,3.0,18.26784841502375,17.349351572897472,24.0
1522,11,2,-2,-3,-2,5,3,-2,True,11,-3,1.5,4.810702354423639,4.743416490252569,12.0
1523,-12,-3,-1,-4,8,-1,-2,0,True,8,-12,-1.875,5.488624600025037,5.465802777268862,-15.0
1524,22,3,0,-3,-1,-7,-22,9,True,22,-22,0.125,12.631451675423985,11.816302298096474,1.0
1525,9,-5,-9,-3,-1,1,0,3,True,9,-9,-0.625,5.3967582862307255,5.086747487343951,-5.0
1526,-23,-10,-5,0,-1,1,6,-2,True,6,-23,-4.25,8.876131718587455,9.327379053088816,-34.0
1527,8,-3,-2,-3,-4,-4,-2,-6,True,8,-6,-2.0,4.242640687119285,4.444097208657794,-16.0
1528,-4,-9,-4,-2,0,1,2,-1,True,2,-9,-2.125,3.5228843701879127,3.9210967853395307,-17.0
1529,7,10,10,7,2,-1,1,0,True,10,-1,4.5,4.503966505838413,6.164414002968976,36.0
1530,2,6,3,-1,13,1,2,1,True,13,-1,3.375,4.373213921133975,5.303300858899107,27.0
1531,-18,-23,-3,-1,-4,1,-6,-14,True,1,-23,-8.5,8.734169352933012,11.789826122551595,-68.0
1532,-5,1,-4,-4,-9,-2,7,-8,True,7,-9,-3.0,5.1269595556932455,5.656854249492381,-24.0
1533,10,8,0,-3,-18,9,8,3,True,10,-18,2.125,9.372261504796253,9.020809276334358,17.0
1534,22,8,-1,0,7,-20,-3,-2,True,22,-20,1.375,11.92760902875581,11.241663577958558,11.0
1535,-12,2,-1,-4,11,5,13,0,True,13,-12,1.75,8.066686343935071,7.745966692414834,14.0
1536,-5,-2,0,-1,-16,2,0,-4,True,2,-16,-3.25,5.625198409199194,6.18465843842649,-26.0
1537,-14,-6,-4,-2,-5,-2,-6,1,True,1,-14,-4.75,4.432026302139591,6.304760106459246,-38.0
1538,12,-8,-3,-3,1,-2,-3,-2,True,12,-8,-1.0,5.80640040940045,5.522680508593631,-8.0
1539,8,0,1,3,-2,-7,-3,-1,True,8,-7,-0.125,4.421942042651783,4.138236339311712,-1.0
1540,-13,-3,-2,1,-5,0,-4,-12,True,1,-13,-4.75,5.175491695067657,6.782329983125268,-38.0
1541,-57,-22,-6,-1,4,-5,-5,-6,True,4,-57,-12.25,19.535681640087635,22.0,-98.0
1542,-1,6,1,0,-3,3,-1,2,True,6,-3,0.875,2.7998724460742337,2.7613402542968153,7.0
1543,-5,9,0,-1,1,-3,-3,-10,True,9,-10,-1.5,5.451081150953975,5.315072906367325,-12.0
1544,-6,11,13,2,-3,1,2,-2,True,13,-6,2.25,6.627863262664025,6.59545297913646,18.0
1545,17,-20,0,2,-6,-4,-3,2,True,17,-20,-1.5,10.281745265969475,9.733961166965893,-12.0
1546,-14,-14,-7,-1,-1,4,5,31,True,31,-14,0.375,14.362028308802943,13.439680055715613,3.0
1547,-20,4,3,4,-1,-1,1,-1,True,4,-20,-1.375,7.836498853806736,7.458216945088149,-11.0
1548,-10,-43,-13,-4,2,-2,-2,-7,True,2,-43,-9.875,14.217067208112931,16.564268773477444,-79.0
1549,-3,3,-9,-5,-3,-2,-2,-2,True,3,-9,-2.875,3.3567628964311944,4.257346591481601,-23.0
1550,-7,11,11,6,6,1,-4,-7,True,11,-7,2.125,7.4916620318858484,7.322909257938405,17.0
1551,19,16,3,3,5,0,-1,-7,True,19,-7,4.75,8.6972902183874,9.420721840708387,38.0
1552,34,23,-7,-6,-4,0,-3,-14,True,34,-14,2.875,16.582585529920923,15.7757725642835,23.0
1553,2,-10,-6,-2,0,-1,-1,9,True,9,-10,-1.125,5.566160513059505,5.326818938165629,-9.0
1554,-11,-8,-1,-2,-2,-2,0,0,True,0,-11,-3.25,4.026696625558686,4.9749371855331,-26.0
1555,11,10,-1,-2,-1,6,2,7,True,11,-2,4.0,5.18238775634773,6.284902544988268,32.0
1556,-3,5,0,2,-3,0,-1,-3,True,5,-3,-0.375,2.8252686345094435,2.669269563007828,-3.0
1557,0,7,4,0,-5,-4,-3,2,True,7,-5,0.125,4.120939559996343,3.856812155135378,1.0
1558,2,11,2,1,0,-5,-1,7,True,11,-5,2.125,4.911720676097125,5.062114182829147,17.0
1559,33,7,2,-1,-2,-2,-2,1,True,33,-2,4.5,11.916375287812984,12.020815280171307,36.0
1560,14,-2,-8,-5,-1,-3,-2,-4,True,14,-8,-1.375,6.588680769753099,6.314665470157545,-11.0
1561,22,20,12,3,3,-1,2,7,True,22,-1,8.5,8.635475005547093,11.726039399558575,68.0
1562,13,-11,14,3,2,3,3,12,True,14,-11,4.875,8.201698430377524,9.089829481348922,39.0
1563,6,6,-3,1,0,2,1,0,True,6,-3,1.625,3.0676887530703443,3.29772648956823,13.0
1564,-5,-2,-3,1,-4,-1,0,0,True,1,-5,-1.75,2.1213203435596424,2.6457513110645907,-14.0
1565,-16,0,3,-4,-5,-4,-4,-8,True,3,-16,-4.75,5.625198409199194,7.088723439378913,-38.0
1566,-27,-14,-5,-1,13,5,3,2,True,13,-27,-3.0,12.45563555756418,12.031209415515965,-24.0
1567,-18,-10,-8,-5,-9,-5,0,0,True,0,-18,-6.875,5.866064633612068,8.796306042879591,-55.0
1568,5,6,0,-3,-8,-4,-2,-3,True,6,-8,-1.125,4.6732521560777895,4.513867521316947,-9.0
1569,10,0,3,3,8,3,-1,-10,True,10,-10,2.0,6.09449400220044,6.041522986797286,16.0
1570,-21,5,-4,0,-2,-2,0,-1,True,5,-21,-3.125,7.679983258910325,7.834219807996199,-25.0
1571,-13,-10,-5,-2,8,0,1,3,True,8,-13,-2.25,6.881652625434014,6.819090848492928,-18.0
1572,-6,1,0,0,-2,0,-4,-10,True,1,-10,-2.625,3.814914340921881,4.430011286667337,-21.0
1573,-1,2,-2,-2,0,2,0,1,True,2,-2,0.0,1.6035674514745462,1.5,0.0
1780,19,7,2,0,-6,-5,0,5,True,19,-6,2.75,7.923743703939085,7.905694150420948,22.0
1781,4,-1,-6,-1,-1,-8,-5,4,True,4,-8,-1.75,4.399675312695569,4.47213595499958,-14.0
1782,-14,-22,-2,-2,-5,7,-1,10,True,10,-22,-3.625,10.40518414747462,10.386289038920495,-29.0
1783,-10,-12,-15,-9,8,20,-9,-40,True,20,-40,-8.375,17.45964735366341,18.354154842977653,-67.0
1784,9,-6,-12,-2,-4,-4,-10,-17,True,9,-17,-5.75,7.7597864477242995,9.260129588726068,-46.0
1785,-6,-15,-7,-8,-16,-22,-3,11,True,11,-22,-8.25,9.996427933445597,12.469963913339926,-66.0
1786,-7,-18,-14,-12,-13,-2,20,17,True,20,-18,-3.625,14.490760603127182,14.031215200402281,-29.0
1787,4,0,1,1,-6,-1,1,12,True,12,-6,1.5,5.0990195135927845,5.0,12.0
1788,-8,1,-3,2,2,0,-3,10,True,10,-8,0.125,5.221863378417434,4.886205071423016,1.0
1789,1,13,-6,-3,-23,-17,-2,1,True,13,-23,-4.5,11.186726828829652,11.390785749894517,-36.0
1790,-7,0,1,-10,-8,-1,-18,-1,True,1,-18,-5.5,6.524678426668135,8.215838362577491,-44.0
1791,3,-2,2,-6,-28,-7,-8,-5,True,3,-28,-6.375,9.635314510397972,11.039701082909808,-51.0
1792,-3,0,4,-1,-11,-1,-8,-1,True,4,-11,-2.625,4.749060057376767,5.1599418601375735,-21.0
1793,7,0,-2,-1,-5,7,9,7,True,9,-5,2.75,5.311712126450916,5.678908345800274,22.0
1794,3,-5,-8,-4,17,3,-2,-18,True,17,-18,-1.75,10.110108096073242,9.617692030835672,-14.0
1795,17,-2,-3,3,-3,-9,3,-1,True,17,-9,0.625,7.6333385319175475,7.167635593415725,5.0
1796,-16,0,13,26,43,1,0,-2,True,43,-16,8.125,18.619785943222563,19.21913109378257,65.0
1797,3,8,5,-3,-4,-2,-24,-5,True,8,-24,-2.75,9.765098200076784,9.539392014169456,-22.0
1798,-4,10,7,2,3,2,4,9,True,10,-4,4.125,4.517821851923146,5.905505905508858,33.0
1799,2,-3,-5,3,14,11,9,-9,True,14,-9,2.75,8.154753215150045,8.108637370113428,22.0
1800,20,-7,-9,-7,-11,3,4,12,True,20,-11,0.625,11.121889613344873,10.422331792837916,5.0
1801,-5,-2,-1,-1,8,-3,2,7,True,8,-5,0.625,4.68851179556401,4.430011286667337,5.0
1802,1,12,-2,-2,-9,-10,3,0,True,12,-10,-0.875,6.937218462755804,6.547900426854397,-7.0
1803,-2,-4,2,3,4,9,8,1,True,9,-4,2.625,4.470139019889969,4.937104414532874,21.0
1804,-3,-3,-5,-5,7,11,6,8,True,11,-5,2.0,6.611677980232077,6.5,16.0
1805,12,-3,0,-11,-7,4,0,3,True,12,-11,-0.25,7.045768740375825,6.59545297913646,-2.0
1806,-6,3,4,24,22,10,-1,-3,True,24,-6,6.625,11.21144185961059,12.404636230055278,53.0
1807,4,5,-1,-8,13,-9,-7,-15,True,13,-15,-2.25,9.176834188013082,8.874119674649425,-18.0
1808,-10,-2,-3,-10,-17,-3,3,1,True,3,-17,-5.125,6.664136424602537,8.070006195784487,-41.0
1809,-9,-6,-1,-3,-10,13,7,-4,True,13,-10,-1.625,7.927123419897391,7.591113225344488,-13.0
1810,1,11,-2,-1,14,22,11,3,True,22,-2,7.375,8.467374361124502,10.822430410956681,59.0
1811,-8,4,0,-5,-18,-8,-10,-2,True,4,-18,-5.875,6.770471602058878,8.638576271585498,-47.0
1812,-19,3,4,-5,-11,5,13,14,True,14,-19,0.5,11.464230084422216,10.735455276791944,4.0
1813,18,-22,-8,-4,-23,-23,2,-1,True,18,-23,-7.625,14.569415127000024,15.616497686741416,-61.0
1814,-17,-2,5,3,4,-8,-3,-7,True,5,-17,-3.125,7.434235478033846,7.623975340988453,-25.0
1815,8,10,-1,0,-7,-12,-3,13,True,13,-12,1.0,8.68496237346895,8.18535277187245,8.0
1816,-11,-4,3,-3,8,-3,0,2,True,8,-11,-1.0,5.656854249492381,5.385164807134504,-8.0
1817,-13,7,10,7,7,8,20,1,True,20,-13,5.875,9.295736349838794,10.494045930907678,47.0
1818,17,-16,-4,-3,5,-2,-7,-6,True,17,-16,-2.0,9.651054716602593,9.246621004453464,-16.0
1819,10,3,17,9,-2,11,1,-3,True,17,-3,5.75,7.0660152440092725,8.760707733967616,46.0
1820,3,4,0,0,2,-7,-23,-2,True,4,-23,-2.875,8.822657519947473,8.739279146474267,-23.0
1821,-2,-5,-4,1,9,7,-4,-3,True,9,-5,-0.125,5.356904756613521,5.0124844139408555,-1.0
1822,12,5,4,4,-11,-4,0,8,True,12,-11,2.25,7.186296483088987,7.088723439378913,18.0
1823,10,-4,-11,-7,-15,-30,-11,-9,True,10,-30,-9.625,11.160357137142674,14.199471821162927,-77.0
1824,-27,18,-5,2,3,-5,-10,-9,True,18,-27,-4.125,12.877860292544165,12.732831578246843,-33.0
1825,11,-2,8,4,21,13,-1,-12,True,21,-12,5.25,10.278271116430872,10.954451150103322,42.0
1826,23,5,-2,-1,-2,-5,2,-5,True,23,-5,1.875,9.17196816392207,8.782084035125148,15.0
1827,12,-10,-3,-3,0,2,2,10,True,12,-10,1.25,7.146427679017578,6.800735254367722,10.0
1828,3,-24,-17,-9,-4,0,-10,-20,True,3,-24,-10.125,9.642724866817618,13.560051622320618,-81.0
1829,-14,7,4,0,-1,-5,-3,-15,True,7,-15,-3.375,7.836498853806736,8.070006195784487,-27.0
1830,-3,-1,5,-5,1,-2,1,43,True,43,-5,4.875,15.697474774170344,15.471748446765801,39.0
1831,2,-9,-12,-4,-15,-6,-3,-17,True,2,-17,-8.0,6.458659745975609,10.024968827881711,-64.0
1832,17,-13,-2,2,11,14,11,-11,True,17,-13,3.625,11.463451237987375,11.319231422671772,29.0
1833,3,-25,-3,0,4,0,6,25,True,25,-25,1.25,13.666957023628715,12.84523257866513,10.0
1834,3,5,-2,-7,-9,6,-5,-2,True,6,-9,-1.375,5.578978401105349,5.3967582862307255,-11.0
1835,11,-1,-3,3,23,16,-2,-25,True,23,-25,2.75,14.606749907393596,13.937359864766353,22.0
1836,-20,-1,-5,-1,-4,-5,2,-15,True,2,-20,-6.125,7.529703086538577,9.334077351297235,-49.0
1837,11,20,3,0,-8,-18,-8,-7,True,20,-18,-0.875,12.100029515902607,11.352312539742728,-7.0
1838,-5,11,-1,-2,-3,7,13,15,True,15,-5,4.375,8.016723591521485,8.681877677092668,35.0
1839,-17,-10,-9,-7,2,8,5,2,True,8,-17,-3.25,8.713700214522612,8.774964387392123,-26.0
1840,18,35,25,7,-6,-6,-1,-7,True,35,-7,8.125,16.11066638685599,17.120893668263932,65.0
1841,0,1,0,1,-10,-6,-1,2,True,2,-10,-1.625,4.172614801981401,4.227883631321941,-13.0
1842,-6,-7,-8,-1,0,-5,-2,9,True,9,-8,-2.5,5.477225575051661,5.70087712549569,-20.0
1843,-6,-14,-14,-6,-2,1,0,25,True,25,-14,-2.0,12.317235311314212,11.6940155635265,-16.0
1844,-18,10,6,0,-2,-1,-6,-12,True,10,-18,-2.875,9.093757670590776,8.979142498033985,-23.0
1845,-9,-3,-2,1,9,11,4,4,True,11,-9,1.875,6.556076788533128,6.41287766919033,15.0
1846,-4,-12,-3,-1,0,0,0,-2,True,0,-12,-2.75,4.026696625558686,4.663689526544408,-22.0
1847,1,11,5,14,53,30,12,7,True,53,1,16.625,17.04563203370797,23.035298999578885,133.0
1848,-7,1,0,-3,-10,9,11,5,True,11,-10,0.75,7.3824115301167,6.946221994724902,6.0
1849,-3,-9,-9,-8,-18,-10,-5,-8,True,-3,-18,-8.75,4.399675312695569,9.669539802906858,-70.0
1850,-11,4,7,4,8,-9,-4,6,True,8,-11,0.625,7.520210863305059,7.0622234459127675,5.0
2103,-8,-13,-5,-1,13,5,3,6,True,13,-13,0.0,8.434622525214577,7.88986691902975,0.0
2104,-12,-1,1,0,1,-2,5,21,True,21,-12,1.625,9.226321043622967,8.782084035125148,13.0
2105,1,-8,-9,-2,-2,3,2,0,True,3,-9,-1.875,4.454131308603925,4.568916720624267,-15.0
2106,-3,-3,5,4,-2,0,-2,12,True,12,-3,1.375,5.289815011618351,5.135659646043535,11.0
2107,4,-2,-4,-2,-3,2,-2,-9,True,4,-9,-2.0,3.8913824205360674,4.153311931459037,-16.0
2108,11,7,-2,-4,-5,5,1,-12,True,11,-12,0.125,7.414994461032514,6.937218462755804,1.0
2109,7,-1,0,-3,-4,-6,-16,8,True,8,-16,-1.875,7.586407017064891,7.339959127951599,-15.0
2110,-14,-1,-1,0,2,2,-5,-3,True,2,-14,-2.5,5.209880722517277,5.477225575051661,-20.0
2111,-5,1,0,-6,-7,-3,1,3,True,3,-7,-2.0,3.7416573867739413,4.031128874149275,-16.0
2112,-14,-16,-9,-6,-1,0,-2,10,True,10,-16,-4.75,8.396427811873332,9.17877987534291,-38.0
2113,6,6,0,0,2,1,2,-1,True,6,-1,2.0,2.6726124191242437,3.2015621187164243,16.0
2114,10,0,2,0,-6,-12,-6,-13,True,10,-13,-3.125,7.661359446692772,7.8182478855559445,-25.0
2115,-9,-7,-2,2,-4,-3,0,0,True,2,-9,-2.875,3.720119045714225,4.513867521316947,-23.0
2116,4,17,1,1,11,3,-1,-14,True,17,-14,2.75,9.051440295807703,8.902246907382429,22.0
2117,-13,-7,-1,1,2,3,2,3,True,3,-13,-1.25,5.775564289066727,5.545268253204709,-10.0
2118,-3,-3,0,3,0,-3,1,6,True,6,-3,0.125,3.2265638511757806,3.020761493398643,1.0
2119,13,-2,-1,0,2,-2,-1,1,True,13,-2,1.25,4.949747468305833,4.795831523312719,10.0
2120,-7,4,2,6,28,10,3,7,True,28,-7,6.625,9.970492178709849,11.440061188647551,53.0
2121,-1,15,3,0,-1,6,4,1,True,15,-1,3.375,5.31675249968034,6.010407640085654,27.0
2122,12,13,20,1,-5,-3,-1,1,True,20,-5,4.75,9.019819447036777,9.682458365518542,38.0
2123,-10,-4,-1,6,5,0,0,-1,True,6,-10,-0.625,5.0124844139408555,4.7302219821061255,-5.0
2124,2,-11,-16,-5,-7,-10,0,1,True,2,-16,-5.75,6.453127702351561,8.336666000266533,-46.0
2125,4,2,5,0,-3,-1,-1,-18,True,5,-18,-1.5,7.191264542087553,6.892024376045111,-12.0
2126,9,4,-5,3,7,2,4,11,True,11,-5,4.375,4.897156609415596,6.334429729659964,35.0
2127,-6,-12,-9,-3,0,0,2,-7,True,2,-12,-4.375,4.926241685388278,6.354132513569417,-35.0
2128,-4,-3,-3,-4,-6,-1,2,9,True,9,-6,-1.25,4.77343841331532,4.636809247747852,-10.0
2129,5,7,4,2,2,-3,-3,0,True,7,-3,1.75,3.615443067098218,3.8078865529319543,14.0
2130,1,-2,-2,-2,-10,-5,-2,2,True,2,-10,-2.5,3.7032803990902057,4.272001872658765,-20.0
2131,-22,-14,-7,-3,-8,-4,-3,1,True,1,-22,-7.5,7.3484692283495345,10.173494974687902,-60.0
2132,-5,4,2,-3,2,3,-2,7,True,7,-5,1.0,4.0,3.872983346207417,8.0
2133,-5,-15,-7,-4,-3,0,1,-2,True,1,-15,-4.375,5.0124844139408555,6.41287766919033,-35.0
2134,-1,2,5,4,3,-1,3,2,True,5,-1,2.125,2.1671244937540095,2.9368350311176825,17.0
2135,7,-2,-4,-4,-6,-5,-8,-21,True,7,-21,-5.375,7.74481393302272,9.020809276334358,-43.0
2136,-1,22,1,-1,4,-1,1,1,True,22,-1,3.25,7.7597864477242995,7.952986860293433,26.0
2137,-2,10,5,-2,-5,-3,-1,4,True,10,-5,0.75,5.063877678504601,4.795831523312719,6.0
2138,-2,1,1,0,-8,-7,-8,3,True,3,-8,-2.5,4.503966505838413,4.898979485566356,-20.0
2139,-2,1,2,-1,4,4,0,-3,True,4,-3,0.625,2.615202805574687,2.5248762345905194,5.0
2140,4,-4,-11,-7,-9,-3,-1,0,True,4,-11,-3.875,4.969550137731641,6.051859218455102,-31.0
2141,-13,14,19,7,0,-3,0,-3,True,19,-13,2.625,10.266972011538469,9.956153875869939,21.0
2142,6,-14,-8,-7,0,-1,-1,0,True,6,-14,-3.125,6.197637798848388,6.585969936159746,-25.0
2143,-7,4,-8,-2,8,6,0,1,True,8,-8,0.25,5.775564289066727,5.408326913195984,2.0
2144,-4,2,1,7,11,10,1,-4,True,11,-4,3.0,5.80640040940045,6.2048368229954285,24.0
2145,-2,3,-1,7,6,3,3,-1,True,7,-2,2.25,3.3273756282434617,3.840572873934304,18.0
2146,8,-4,3,1,-5,11,-3,-7,True,11,-7,0.5,6.458659745975609,6.06217782649107,4.0
2147,3,-4,-6,-7,-6,-3,-1,8,True,8,-7,-2.0,5.18238775634773,5.244044240850758,-16.0
2148,-15,-6,0,0,-2,-5,3,11,True,11,-15,-1.75,7.516648189186454,7.245688373094719,-14.0
2149,12,2,8,2,-4,-3,-7,-1,True,12,-7,1.125,6.334429729659964,6.031169040907409,9.0
2150,-3,3,2,-6,0,-5,0,-1,True,3,-6,-1.25,3.1959796173138706,3.24037034920393,-10.0
2151,-3,-8,-5,-6,-15,-6,-3,-12,True,-3,-15,-7.25,4.267819784654187,8.276472678623424,-58.0
2152,-2,-20,-6,-3,25,9,2,-2,True,25,-20,0.375,12.883405716546493,12.057155551787494,3.0
2153,13,9,4,-1,-20,-7,-2,7,True,13,-20,0.375,10.473606283006278,9.80433577556379,3.0
2154,-6,5,5,6,4,-2,-1,-9,True,6,-9,0.25,5.650537269018887,5.291502622129181,2.0
2155,5,10,11,1,-2,-6,-3,7,True,11,-6,2.875,6.311836952447814,6.566962768281849,23.0
2156,-7,-3,-2,4,2,-2,0,5,True,5,-7,-0.375,3.9618718519695424,3.724916106437835,-3.0
2157,-19,-6,-6,0,-1,-2,-5,11,True,11,-19,-3.5,8.332380897952964,8.54400374531753,-28.0
2158,-1,-4,0,-2,-4,0,1,5,True,5,-4,-0.625,2.9246489410818914,2.806243040080456,-5.0
2159,33,-18,-1,-3,-8,-3,-1,13,True,33,-18,1.5,15.343681808111487,14.430869689661812,12.0
2160,-2,-7,-10,-4,11,5,1,-2,True,11,-10,-1.0,6.676183683170241,6.324555320336759,-8.0
2161,10,6,-11,-5,-10,-7,1,-7,True,10,-11,-2.875,7.698562017861332,7.754031209635412,-23.0
2162,-3,1,-4,-3,4,1,-1,-4,True,4,-4,-1.125,2.900123150094541,2.9368350311176825,-9.0
2163,16,5,-8,-3,19,13,1,-4,True,19,-8,4.875,10.077379194441946,10.612492638395562,39.0
2164,-7,-9,3,5,15,1,1,5,True,15,-9,1.75,7.478540728549349,7.211102550927978,14.0
2165,-14,-11,-4,-1,-9,-7,2,2,True,2,-14,-5.25,5.994044663544927,7.681145747868608,-42.0
2166,25,6,0,2,17,3,-1,22,True,25,-1,9.25,10.443726756834868,13.45362404707371,74.0
2167,-7,12,4,-7,-14,-10,-4,-2,True,12,-14,-3.5,8.246211251235321,8.470537173048708,-28.0
2168,14,6,-1,-6,-17,-8,-4,9,True,14,-17,-0.875,10.091545258992088,9.48024261292927,-7.0
2169,2,-3,-1,4,-5,4,2,6,True,6,-5,1.125,3.7961446607992015,3.724916106437835,9.0
2170,8,-10,-3,-19,-43,-8,-5,-26,True,8,-43,-13.25,15.781996976663903,19.836834424877374,-106.0
2427,13,7,-2,-2,-6,2,1,3,True,13,-6,2.0,5.903993805649092,5.873670062235365,16.0
2428,10,10,5,-2,2,0,0,3,True,10,-2,3.5,4.535573676110727,5.5,28.0
2429,-17,-24,-2,-3,-8,-3,-3,-4,True,-2,-24,-8.0,8.141603913585717,11.045361017187261,-64.0
2430,-3,-4,-6,-6,-2,-1,0,2,True,2,-6,-2.5,2.8284271247461903,3.640054944640259,-20.0
2431,3,14,5,4,8,4,0,0,True,14,0,4.75,4.5591352563522705,6.383572667401852,38.0
2432,-4,4,10,-2,-1,-2,0,-3,True,10,-4,0.25,4.621378891320518,4.330127018922194,2.0
2433,2,9,3,0,-1,-1,2,3,True,9,-1,2.125,3.2265638511757806,3.69120576505835,17.0
2434,-3,1,5,2,2,1,-2,-1,True,5,-3,0.625,2.5599944196367748,2.4748737341529163,5.0
2435,4,4,-4,-5,1,-2,-2,-6,True,4,-6,-1.25,3.882193783343198,3.840572873934304,-10.0
2436,7,1,-3,0,-1,0,-1,0,True,7,-3,0.375,2.9246489410818914,2.7613402542968153,3.0
2437,0,0,-1,3,2,-4,-1,-2,True,3,-4,-0.375,2.1998376563477846,2.091650066335189,-3.0
2438,-5,-11,-5,-3,-2,-2,-1,2,True,2,-11,-3.375,3.814914340921881,4.911720676097125,-27.0
2439,-1,3,0,1,1,1,-2,3,True,3,-2,0.75,1.752549163769328,1.8027756377319946,6.0
2440,1,3,1,0,11,8,1,0,True,11,0,3.125,4.120939559996343,4.962358310319802,25.0
2441,4,3,-5,-2,-2,1,2,2,True,4,-5,0.375,3.0676887530703443,2.8939592256975564,3.0
2442,-10,-8,-10,-3,-4,-4,-3,-2,True,-2,-10,-5.5,3.295017884191656,6.304760106459246,-44.0
2443,0,0,0,-2,-2,0,0,-5,True,0,-5,-1.125,1.807721533549109,2.03100960115899,-9.0
2444,-13,8,1,0,-2,-3,-3,1,True,8,-13,-1.375,5.8782285961479435,5.667892024377317,-11.0
2445,-7,-9,5,1,-2,-2,0,6,True,6,-9,-1.0,5.237229365663817,5.0,-8.0
2446,5,-3,-6,-3,-3,-3,1,-11,True,5,-11,-2.875,4.6732521560777895,5.232112384114087,-23.0
2447,4,-1,-3,-2,0,-2,-1,2,True,4,-3,-0.375,2.326094212561969,2.207940216581962,-3.0
2448,14,4,1,0,-3,0,0,2,True,14,-3,2.25,5.1478150704935,5.315072906367325,18.0
2449,-3,-14,-4,-2,0,1,-1,1,True,1,-14,-2.75,4.891683905218266,5.338539126015656,-22.0
2450,8,-1,1,0,-3,0,-3,-8,True,8,-8,-0.75,4.527692569068709,4.301162633521313,-6.0
2451,3,13,4,2,1,0,-3,-1,True,13,-3,2.375,4.838461975226661,5.111262075065218,19.0
2452,23,-15,2,4,1,0,0,7,True,23,-15,2.75,10.443726756834868,10.14889156509222,22.0
2453,0,-24,-10,-7,-3,-1,-3,-1,True,0,-24,-6.125,7.972049386987729,9.650129532809391,-49.0
2454,9,-6,-4,0,0,1,-2,-8,True,9,-8,-1.25,5.203021100421232,5.024937810560445,-10.0
2455,-8,-1,-1,-2,-2,1,1,4,True,4,-8,-1.0,3.4641016151377544,3.391164991562634,-8.0
2456,-11,-8,-2,-2,-2,-3,-5,-8,True,-2,-11,-5.125,3.48209706929603,6.072478900745559,-41.0
2457,-8,15,1,-1,-2,-2,0,4,True,15,-8,0.875,6.642665127793212,6.274950199005566,7.0
2458,-9,7,-3,-4,-2,-3,-1,-4,True,7,-9,-2.375,4.470139019889969,4.808846015417836,-19.0
2459,-15,-7,-5,-5,-2,-3,0,2,True,2,-15,-4.375,5.180664601601392,6.528782428600298,-35.0
2460,-1,-4,-6,-2,9,4,-2,4,True,9,-6,0.25,4.978525312350464,4.663689526544408,2.0
2461,-5,4,1,3,1,1,1,-7,True,4,-7,-0.125,3.833592123769634,3.588175023601831,-1.0
2462,15,-2,-5,-2,-9,-6,-1,6,True,15,-9,-0.5,7.653197277702214,7.176350047203662,-4.0
2463,-7,-1,-2,-4,-7,-3,0,-2,True,0,-7,-3.25,2.6049403612586386,4.06201920231798,-26.0
2464,-3,2,-2,-1,-5,0,1,-4,True,2,-5,-1.5,2.449489742783178,2.7386127875258306,-12.0
2465,-5,9,6,1,1,-1,-2,-13,True,9,-13,-0.5,6.718843437888483,6.304760106459246,-4.0
2466,5,8,0,0,-4,0,2,13,True,13,-4,3.0,5.42481072744215,5.894913061275798,24.0
2467,-20,-11,0,0,1,1,-1,-4,True,1,-20,-4.25,7.516648189186454,8.215838362577491,-34.0
2468,-41,3,10,1,2,0,-3,-20,True,10,-41,-6.0,16.54431279063249,16.59819267269783,-48.0
2469,15,3,-6,-3,-4,-4,-1,0,True,15,-6,0.0,6.676183683170241,6.244997998398398,0.0
2470,4,9,1,0,1,-1,-2,0,True,9,-2,1.5,3.505098327538656,3.605551275463989,12.0
2471,-4,-1,-1,-2,-11,-5,0,3,True,3,-11,-2.625,4.172614801981401,4.703721930556695,-21.0
2472,-8,5,-3,-2,2,5,3,-11,True,5,-11,-1.125,5.986592162013855,5.7118298293979315,-9.0
2473,-4,-2,5,3,6,1,-2,-3,True,6,-4,0.5,3.8172540616821107,3.605551275463989,4.0
2474,13,-5,-5,-1,-4,-4,0,10,True,13,-5,0.5,7.0710678118654755,6.6332495807108,4.0
2475,10,4,1,3,10,5,2,-6,True,10,-6,3.625,5.1530157605591915,6.031169040907409,29.0
2476,3,0,2,0,0,2,1,14,True,14,0,2.75,4.6827952580239325,5.172040216394301,22.0
2477,4,1,-3,-6,-10,-4,-4,9,True,9,-10,-1.625,6.022280061808579,5.863019699779287,-13.0
2478,-2,-5,-2,-4,-5,-4,-4,4,True,4,-5,-2.75,2.9640705601780613,3.905124837953327,-22.0
2479,-5,-12,-4,-2,1,-2,-2,-5,True,1,-12,-3.875,3.833592123769634,5.2796780204857185,-31.0
2480,-9,-12,-4,-3,-4,-5,-4,2,True,2,-12,-4.875,4.155461122770509,6.234981956669963,-39.0
2481,5,5,-4,-2,-1,2,4,2,True,5,-4,1.375,3.37797487937881,3.4460121880225554,11.0
2482,-3,-5,-1,-1,0,-2,-1,-3,True,0,-5,-2.0,1.6035674514745462,2.5,-16.0
2483,-2,-7,-4,0,1,-1,-1,-3,True,1,-7,-2.125,2.5319388392523003,3.181980515339464,-17.0
2484,5,8,-1,-1,-1,-1,-1,3,True,8,-1,1.375,3.543101950067402,3.588175023601831,11.0
2485,4,-1,-4,-2,-3,-2,-4,-1,True,4,-4,-1.625,2.5599944196367748,2.8939592256975564,-13.0
2486,3,8,1,0,3,5,-1,6,True,8,-1,3.125,3.090885217631258,4.257346591481601,25.0
2487,3,2,-4,-5,-7,-2,-1,-2,True,3,-7,-2.0,3.3806170189140663,3.7416573867739413,-16.0
2488,2,1,1,14,11,-4,0,-2,True,14,-4,2.875,6.289163014946538,6.547900426854397,23.0
2489,-3,-1,5,0,-1,2,0,1,True,5,-3,0.375,2.38671920665766,2.2638462845343543,3.0
2490,18,13,7,3,-1,0,3,23,True,23,-1,8.25,8.827716093564145,11.672617529928752,66.0
2491,5,-1,-4,-9,-15,-8,-4,-6,True,5,-15,-5.25,5.897941529526576,7.615773105863909,-42.0
2492,-9,-14,3,4,0,2,4,-17,True,4,-17,-3.375,8.617880084037903,8.739279146474267,-27.0
2493,-1,4,-1,-3,0,-1,2,8,True,8,-3,1.0,3.5456210417116734,3.4641016151377544,8.0
2494,-11,14,3,-1,3,-1,1,21,True,21,-11,3.625,9.81161847723693,9.867877177995275,29.0
2495,6,1,0,-1,-1,1,-3,1,True,6,-3,0.5,2.6186146828319083,2.5,4.0
2496,8,1,-2,-5,0,-1,0,4,True,8,-5,0.625,3.9256482631170977,3.724916106437835,5.0
2497,-8,-10,-1,-8,-6,-3,-2,-5,True,-1,-10,-5.375,3.2043497223082786,6.154266812545585,-43.0
2498,15,3,-2,-3,-14,-7,-18,-4,True,15,-18,-3.75,10.138328969101085,10.198039027185569,-30.0
2499,3,6,1,-3,21,1,-2,-9,True,21,-9,2.25,8.795290947839238,8.52936105461599,18.0
2500,2,-1,3,6,9,5,6,2,True,9,-1,4.0,3.116774889895918,4.949747468305833,32.0
2717,-13,-28,-4,3,7,1,-1,-1,True,7,-28,-4.5,11.135528725660043,11.346805717910216,-36.0
2718,-10,-15,-4,-2,-2,-1,-1,1,True,1,-15,-4.25,5.444525428617001,6.6332495807108,-34.0
2719,-4,-18,-5,-2,1,0,-2,1,True,1,-18,-3.625,6.2091522310675735,6.846531968814577,-29.0
2720,-4,8,6,0,-6,-3,-2,-3,True,8,-6,-0.5,4.956957592256421,4.663689526544408,-4.0
2721,9,4,5,1,-2,-1,-4,-1,True,9,-4,1.375,4.307385683749649,4.257346591481601,11.0
2722,-13,-20,-1,-2,3,1,-1,-6,True,3,-20,-4.875,7.845608416724061,8.810505093353047,-39.0
2723,-5,13,-1,0,1,3,2,1,True,13,-5,1.75,5.1478150704935,5.123475382979799,14.0
2724,-16,-17,0,-1,-3,-1,0,3,True,3,-17,-4.375,7.670677004951108,8.403868156985805,-35.0
2725,-14,5,15,5,2,0,-1,0,True,15,-14,1.5,8.088792952509753,7.713624310270756,12.0
2726,-5,-11,-3,-2,1,0,1,1,True,1,-11,-2.25,4.166190448976482,4.5,-18.0
2727,-2,9,0,0,-3,1,-2,0,True,9,-3,0.375,3.7392703642746743,3.517811819867572,3.0
2728,6,19,6,-3,-2,-1,-3,-8,True,19,-8,1.75,8.413424646700907,8.06225774829855,14.0
2729,-12,18,0,-1,3,0,-1,7,True,18,-12,1.75,8.481071360893706,8.12403840463596,14.0
2730,7,12,2,5,9,2,-2,5,True,12,-2,5.0,4.4077853201547175,6.48074069840786,40.0
2731,6,-2,-6,-3,-2,-1,-3,-9,True,6,-9,-2.5,4.309458036856673,4.743416490252569,-20.0
2732,-25,-28,-11,-5,-11,-6,-1,-1,True,-1,-28,-11.0,10.323343865794095,14.637281168304447,-88.0
2733,9,-20,2,5,6,3,1,-3,True,9,-20,0.375,8.975164144937485,8.403868156985805,3.0
2734,1,3,0,-1,-1,-3,-2,-1,True,3,-3,-0.5,1.8516401995451028,1.8027756377319946,-4.0
2735,6,2,-4,-2,-18,-3,1,3,True,6,-18,-1.875,7.318030570349609,7.097534783289195,-15.0
2736,3,-3,-2,2,-1,0,-3,-3,True,3,-3,-0.875,2.3566016694748027,2.3717082451262845,-7.0
2737,16,10,1,-3,-4,3,-2,0,True,16,-4,2.625,6.968039281503185,7.026734661277598,21.0
2738,8,7,5,-1,9,4,3,2,True,9,-1,4.625,3.3354160160315836,5.578978401105349,37.0
2739,-4,-15,-6,-10,-24,-8,-2,-4,True,-2,-24,-9.125,7.278883352351709,11.3852975367357,-73.0
2740,-1,-30,-2,-3,-6,-4,1,4,True,4,-30,-5.125,10.50765027423897,11.084899638697681,-41.0
2741,4,15,6,2,9,1,2,-1,True,15,-1,4.75,5.175491695067657,6.782329983125268,38.0
2742,-3,10,-2,-1,3,2,-2,-4,True,10,-4,0.375,4.565006649971686,4.286607049870562,3.0
2743,-7,-8,-9,-2,2,-3,-4,-8,True,2,-9,-4.875,3.7961446607992015,6.031169040907409,-39.0
2744,4,13,2,1,-3,2,-2,-12,True,13,-12,0.625,7.049569389078213,6.623820649745885,5.0
2745,2,13,5,2,9,7,0,7,True,13,0,5.625,4.274091382136927,6.90108687092113,45.0
2746,-8,-8,-3,-4,-4,0,3,1,True,3,-8,-2.875,4.0155946010522525,4.7302219821061255,-23.0
2747,-1,2,-8,-8,3,-6,0,-2,True,3,-8,-2.5,4.342481186734475,4.769696007084728,-20.0
2748,-20,-12,-10,-5,0,-4,1,-1,True,1,-20,-6.375,7.190022849159004,9.266876496425319,-51.0
2749,8,9,10,1,17,0,-1,-5,True,17,-5,4.875,7.278883352351709,8.374067112222113,39.0
2750,16,7,-2,0,6,6,2,1,True,16,-2,4.5,5.656854249492381,6.946221994724902,36.0
2751,-6,3,-5,-1,-3,-4,0,2,True,3,-6,-1.75,3.284161123592185,3.5355339059327378,-14.0
2752,-5,-1,-4,-3,1,-2,-3,-2,True,1,-5,-2.375,1.8468119248354136,2.9368350311176825,-19.0
2753,12,3,0,4,9,13,-8,4,True,13,-8,4.625,6.843923269169936,7.897784499465657,37.0
2754,-10,6,-1,-1,-5,-4,-3,8,True,8,-10,-1.25,5.849297882163783,5.612486080160912,-10.0
2755,-17,-1,-9,0,-6,2,6,0,True,6,-17,-3.125,7.259230577094832,7.474958193863027,-25.0
2756,7,9,8,5,2,3,-4,6,True,9,-4,4.5,4.174754056057845,5.958187643906492,36.0
2757,16,-2,-3,2,-2,-4,2,16,True,16,-4,3.125,8.236460751699465,8.314144574157945,25.0
2758,-2,20,9,5,-4,-7,0,2,True,20,-7,2.875,8.559664546164012,8.507349763586777,23.0
2759,22,2,-2,-1,0,-1,-1,1,True,22,-2,2.5,7.982122882685139,7.874007874011811,20.0
2760,-10,-12,-8,-1,2,3,3,-4,True,3,-12,-3.375,6.045954964153424,6.585969936159746,-27.0
2761,-20,-91,-9,0,0,-2,1,-10,True,1,-91,-16.375,30.988188994241938,33.29226636923356,-131.0
2762,-8,-15,-15,-5,-2,-5,-7,-9,True,-2,-15,-8.25,4.6827952580239325,9.340770846134703,-66.0
2763,-20,14,-4,-10,-5,2,2,-1,True,14,-20,-2.75,9.895886591335383,9.656603957913983,-22.0
2764,4,-24,-4,-8,-17,-3,-19,-5,True,4,-24,-9.5,9.516902257112267,13.019216566291536,-76.0
2765,-14,-2,6,3,9,-2,2,-6,True,9,-14,-0.5,7.250615737399726,6.800735254367722,-4.0
2766,14,24,6,-1,-1,-8,-8,-1,True,24,-8,3.125,11.089731415013748,10.833974340010226,25.0
2767,12,16,4,22,7,0,32,9,True,32,0,12.75,10.37510757259206,16.023420358962067,102.0
2768,-14,-4,2,2,9,-9,-1,-14,True,9,-14,-3.625,8.227783940492639,8.507349763586777,-29.0
2769,-27,9,-2,-11,-8,-1,15,-4,True,15,-27,-3.625,12.738440137742813,12.45491870708115,-29.0
2770,-38,-8,3,1,0,7,-35,-13,True,7,-38,-10.375,17.319992576705765,19.23863300757099,-83.0
2771,22,20,-5,-7,6,-6,-28,-7,True,22,-28,-0.625,16.300197194249783,15.260242462031853,-5.0
2772,10,-2,-1,-4,-15,-2,1,5,True,10,-15,-1.0,7.250615737399726,6.855654600401044,-8.0
2773,-6,-16,-5,0,-7,3,4,11,True,11,-16,-2.0,8.28078671210825,8.0,-16.0
2774,-51,-9,-4,-2,0,3,8,-12,True,8,-51,-8.375,18.35318189618045,19.101701494893067,-67.0
2775,-1,13,3,-5,-2,-4,2,7,True,13,-5,1.625,6.045954964153424,5.88430114796991,13.0
2776,6,4,1,1,1,3,18,1,True,18,1,4.375,5.804862493757158,6.9731628404906765,35.0
2777,5,13,-1,-2,-3,-2,-11,-4,True,13,-11,-0.625,7.029275516418053,6.604922406811453,-5.0
2778,8,-2,-5,1,-2,-3,9,-19,True,9,-19,-1.625,8.683934263092638,8.284020762890446,-13.0
2779,25,20,0,-1,0,-2,-4,-5,True,25,-5,4.125,11.556538038208995,11.570436465406134,33.0
2780,16,0,-1,2,3,1,4,16,True,16,-1,5.125,6.895909760761913,8.23862852664204,41.0
2781,0,-1,5,3,-1,1,-3,-5,True,5,-5,-0.125,3.181980515339464,2.979093821953246,-1.0
2782,2,12,3,-4,-11,-10,-4,-11,True,12,-11,-2.875,8.14927691796728,8.147085368400163,-23.0
2783,22,11,-4,-5,-4,3,0,-17,True,22,-17,0.75,11.683321445547923,10.954451150103322,6.0
2784,-11,-1,-4,-9,2,2,0,3,True,3,-11,-2.25,5.284748946598261,5.431390245600108,-18.0
2785,0,-9,7,8,20,-18,-19,13,True,20,-19,0.25,14.380045698318009,13.45362404707371,2.0
2786,12,-8,2,5,1,6,3,-14,True,12,-14,0.875,8.219097969276886,7.73789377027108,7.0
2787,21,11,5,2,3,9,12,8,True,21,2,8.875,6.0812945050493035,10.541584321154007,71.0
2788,11,4,-1,0,0,-7,0,3,True,11,-7,1.25,5.1199888392735495,4.949747468305833,10.0
2789,2,-9,-5,-4,7,6,5,11,True,11,-9,1.625,6.926914382114366,6.680194607943694,13.0
2790,5,18,1,-1,-14,3,-1,-14,True,18,-14,-0.375,10.363914042759824,9.701803955966128,-3.0
2791,1,21,-3,3,9,9,10,1,True,21,-3,6.375,7.539183358579741,9.506576670915772,51.0
2792,26,-2,-3,-5,-7,-3,-8,-2,True,26,-8,-0.5,10.941402365066633,10.246950765959598,-4.0
2793,9,-30,-5,-6,-15,0,-5,8,True,9,-30,-5.5,12.615183595289334,13.019216566291536,-44.0
2794,-31,-15,-6,0,-4,2,3,-3,True,3,-31,-6.75,11.310551331768554,12.549900398011133,-54.0
2795,1,-6,12,2,-8,0,4,15,True,15,-8,2.5,7.928249671720919,7.826237921249264,20.0
2796,4,1,-11,-3,-1,-5,-9,6,True,6,-11,-2.25,5.9701639125619606,6.020797289396148,-18.0
2797,-38,10,-3,-1,-1,-3,-8,-19,True,10,-38,-7.875,14.603693270637299,15.767847031221478,-63.0
2798,-16,7,5,1,8,-3,-3,7,True,8,-16,0.75,8.084376466811948,7.599342076785332,6.0
2799,-15,-6,-8,-1,-5,-2,5,-8,True,5,-15,-5.0,5.903993805649092,7.44983221287567,-40.0
2800,22,-20,-5,0,0,7,-5,-16,True,22,-20,-2.125,13.10874844194844,12.444878464653643,-17.0
2801,24,11,-4,-8,-9,-5,1,18,True,24,-9,3.5,12.592514783450865,12.288205727444508,28.0
2802,7,10,4,4,2,0,-3,-1,True,10,-3,2.875,4.2907708265199025,4.937104414532874,23.0
2803,50,15,7,3,4,-1,-5,-12,True,50,-12,7.625,18.912864102811834,19.264604849308483,61.0
3147,-6,2,-3,-2,2,1,2,-8,True,2,-8,-1.5,3.9279220242478625,3.968626966596886,-12.0
3148,18,9,12,3,-2,-5,-1,6,True,18,-5,5.0,7.782764841072135,8.831760866327848,40.0
3149,28,-8,-11,-4,-7,-3,-3,-12,True,28,-12,-2.5,12.795088343356044,12.227019260637483,-20.0
3150,11,10,8,3,-2,-3,-2,3,True,11,-3,3.5,5.631543812693435,6.324555320336759,28.0
3151,1,-11,-8,-2,0,2,-1,-11,True,2,-11,-3.75,5.391792704790177,6.284902544988268,-30.0
3152,-1,-5,-7,-4,-2,-3,1,1,True,1,-7,-2.5,2.8284271247461903,3.640054944640259,-20.0
3153,-7,6,1,-2,1,1,1,0,True,6,-7,0.125,3.6425069859723185,3.409545424246464,1.0
3154,-9,-15,4,3,-1,-2,0,7,True,7,-15,-1.625,7.20986427452992,6.937218462755804,-13.0
3155,-7,-12,-8,-4,-1,-2,-1,-11,True,-1,-12,-5.75,4.399675312695569,7.0710678118654755,-46.0
3156,15,10,-11,-6,-3,-5,-3,-1,True,15,-11,-0.5,8.652002245558126,8.108637370113428,-4.0
3157,2,-9,9,4,2,1,0,-5,True,9,-9,0.5,5.477225575051661,5.1478150704935,4.0
3158,-2,6,7,2,2,2,-1,2,True,7,-2,2.25,3.0589447293376937,3.640054944640259,18.0
3159,12,-17,-11,-4,-3,-2,-4,5,True,12,-17,-3.0,8.880154438811457,8.831760866327848,-24.0
3160,-7,5,-1,-1,-1,-2,1,2,True,5,-7,-0.5,3.4641016151377544,3.278719262151,-4.0
3161,7,-1,-9,-3,-2,-1,-2,1,True,7,-9,-1.25,4.432026302139591,4.330127018922194,-10.0
3162,0,-17,2,1,2,-2,-3,-6,True,2,-17,-2.875,6.334429729659964,6.585969936159746,-23.0
3163,-3,17,13,1,-7,-3,2,9,True,17,-7,3.625,8.501050355271232,8.739279146474267,29.0
3164,-7,-2,0,-2,-2,0,0,7,True,7,-7,-0.75,3.882193783343198,3.7080992435478315,-6.0
3165,-8,-6,-4,0,-3,0,-1,-1,True,0,-8,-2.875,2.948970764763288,3.984344362627307,-23.0
3166,-12,1,3,1,-5,-1,1,8,True,8,-12,-0.5,5.903993805649092,5.545268253204709,-4.0
3167,-12,6,3,0,0,-1,0,0,True,6,-12,-0.5,5.18238775634773,4.873397172404482,-4.0
3168,8,11,10,5,3,1,-2,-2,True,11,-2,4.25,5.1199888392735495,6.4031242374328485,34.0
3169,-12,-3,-2,-2,-3,-3,-4,-6,True,-2,-12,-4.375,3.3354160160315836,5.373546315051169,-35.0
3170,2,18,8,3,8,1,3,2,True,18,1,5.625,5.680480361981471,7.73789377027108,45.0
3171,-3,-9,-1,-1,3,-1,0,-2,True,3,-9,-1.75,3.4121631178560534,3.640054944640259,-14.0
3172,2,1,5,-2,1,-1,-1,-2,True,5,-2,0.375,2.38671920665766,2.2638462845343543,3.0
3173,10,11,2,-2,-10,-4,-1,-2,True,11,-10,0.5,7.050835816716037,6.614378277661476,4.0
3174,15,11,11,2,-2,-1,-4,-18,True,15,-18,1.75,10.63350499936068,10.099504938362077,14.0
3175,-14,-8,14,1,-3,-2,0,-5,True,14,-14,-2.125,8.096516005577426,7.866066361276137,-17.0
3176,-17,-23,-15,-4,-6,-2,-1,7,True,7,-23,-7.625,9.884150371753183,11.984364814206884,-61.0
3177,3,11,15,8,13,5,3,-1,True,15,-1,7.125,5.566160513059505,8.824681297361396,57.0
3178,11,-16,-12,4,18,-3,-2,-4,True,18,-16,-0.5,11.26308762538687,10.547511554864494,-4.0
3179,-14,-15,-16,10,-11,-5,-2,-1,True,10,-16,-6.75,8.972179222463181,10.770329614269007,-54.0
3180,0,9,-1,14,-21,1,2,4,True,14,-21,1.0,10.22601723895616,9.617692030835672,8.0
3181,-23,-13,-6,8,10,-2,-3,-1,True,10,-23,-3.75,10.68710838881527,10.677078252031311,-30.0
3182,5,-10,5,-10,2,-1,-1,0,True,5,-10,-1.25,5.897941529526576,5.656854249492381,-10.0
3183,3,-12,-15,-17,2,-1,1,-12,True,3,-17,-6.375,8.382592507265109,10.105691465703869,-51.0
3184,-7,-3,-8,-6,-6,1,-2,-7,True,1,-8,-4.75,3.1052950170405937,5.5677643628300215,-38.0
3185,-1,2,0,-13,-4,-1,-2,-1,True,2,-13,-2.5,4.566962103755937,4.949747468305833,-20.0
3186,-5,-23,-8,-16,9,3,1,-3,True,9,-23,-5.25,10.37510757259206,11.034038245356955,-42.0
3187,-8,-1,-5,-5,1,-7,-1,4,True,4,-8,-2.75,4.166190448976482,4.769696007084728,-22.0
3188,2,6,-4,10,60,8,0,2,True,60,-4,10.5,20.500871061633315,21.863211109075447,84.0
3189,-5,11,-1,1,-8,0,-3,19,True,19,-8,1.75,8.924284685220275,8.52936105461599,14.0
3190,3,9,0,-2,-12,-1,-3,0,True,9,-12,-0.75,5.897941529526576,5.5677643628300215,-6.0
3191,14,34,22,6,-3,-3,-1,10,True,34,-3,9.875,13.152267593732377,15.7757725642835,79.0
3192,-4,-2,-11,1,-4,0,-2,-10,True,1,-11,-4.0,4.375255094603872,5.722761571129799,-32.0
3193,-4,-9,-6,-2,-8,-1,1,-1,True,1,-9,-3.75,3.615443067098218,5.049752469181039,-30.0
3194,11,11,6,1,0,0,-2,-5,True,11,-5,2.75,5.946187253790689,6.2048368229954285,22.0
3195,-15,-15,-3,-3,-6,-1,-1,-8,True,-1,-15,-6.5,5.756983337031395,8.440971508067067,-52.0
3196,-4,0,-4,-3,-40,-8,-2,6,True,6,-40,-6.875,13.973827576682673,14.76905548774193,-55.0
3197,7,-9,-2,-3,-11,3,0,-9,True,7,-11,-3.0,6.347102826149446,6.652067347825035,-24.0
3198,-1,-4,-10,-5,-7,1,-1,-12,True,1,-12,-4.875,4.580626906564522,6.490377492873585,-39.0
3199,1,-1,11,3,6,-1,-3,2,True,11,-3,2.25,4.496029994816062,4.769696007084728,18.0
3200,2,-2,-3,0,-1,-1,1,5,True,5,-3,0.125,2.5319388392523003,2.3717082451262845,1.0
3201,-4,-12,-6,-2,10,2,0,3,True,10,-12,-1.125,6.577830732305077,6.254998001598402,-9.0
3202,0,6,17,12,12,-1,-1,5,True,17,-1,6.25,6.840008354213778,8.94427190999916,50.0
3203,0,1,-3,-5,-15,-4,-4,-6,True,1,-15,-4.5,4.869731585445518,6.4031242374328485,-36.0
3204,-4,-7,-11,-4,-5,-4,-2,1,True,1,-11,-4.5,3.505098327538656,5.5677643628300215,-36.0
3205,4,7,3,2,7,0,-5,-27,True,7,-27,-1.125,11.153955096095478,10.494045930907678,-9.0
3206,7,0,-1,-7,-16,-3,-5,-10,True,7,-16,-4.375,6.926914382114366,7.8182478855559445,-35.0
3207,-14,-16,-8,2,26,7,2,11,True,26,-16,1.25,13.9258239048385,13.0862523283024,10.0
3208,-3,-2,-4,10,14,-2,-2,-4,True,14,-4,0.875,6.998724373565718,6.604922406811453,7.0
3209,-15,-5,-5,-6,-1,1,2,0,True,2,-15,-3.625,5.50162313711664,6.294839156007086,-29.0
3210,2,-10,-5,-4,14,15,1,-3,True,15,-10,1.25,8.972179222463181,8.48528137423857,10.0
3211,-5,7,5,2,7,0,-2,4,True,7,-5,2.25,4.334248987508019,4.636809247747852,18.0
3212,-10,7,-1,-7,-16,-10,-1,9,True,9,-16,-3.625,8.716773649530131,8.923284148787374,-29.0
3213,-1,-1,0,-2,-8,-3,6,12,True,12,-8,0.375,6.06953752062591,5.689903338370521,3.0
3214,10,-9,-6,-4,0,1,-1,4,True,10,-9,-0.625,5.950690236074659,5.60133912560202,-5.0
3215,-2,3,-1,2,6,3,4,-7,True,6,-7,1.0,4.140393356054125,4.0,8.0
3216,-11,0,1,6,9,0,0,7,True,9,-11,1.5,6.2105900340811875,6.0,12.0
3217,-2,-3,-6,-2,-13,-5,2,-15,True,2,-15,-5.5,5.781744669956589,7.713624310270756,-44.0
3640,-3,-4,-1,-3,-8,7,-7,-15,True,7,-15,-4.25,6.296257391725432,7.262919523166975,-34.0
3641,-5,-1,1,2,-5,-6,0,6,True,6,-6,-1.0,4.140393356054125,4.0,-8.0
3642,0,0,4,4,3,4,4,8,True,8,0,3.375,2.5599944196367748,4.138236339311712,27.0
3643,-1,0,3,3,-6,-7,1,-1,True,3,-7,-1.0,3.7416573867739413,3.640054944640259,-8.0
3644,2,-3,-6,-7,-8,-11,-2,2,True,2,-11,-4.125,4.703721930556695,6.031169040907409,-33.0
3645,0,-1,1,-1,-4,5,-4,-3,True,5,-4,-0.875,2.9970223317724636,2.9368350311176825,-7.0
3646,10,-3,-15,-7,-11,-7,-1,-3,True,10,-15,-4.625,7.4821215478728265,8.388980867781259,-37.0
3647,0,-1,-9,-2,0,-5,2,8,True,8,-9,-0.875,4.969550137731641,4.7302219821061255,-7.0
3648,5,0,-10,-10,-13,-2,-3,-4,True,5,-13,-4.625,5.9985117201805025,7.271519786124493,-37.0
3649,5,3,2,-1,-4,-2,-1,2,True,5,-4,0.5,2.9760952365713798,2.8284271247461903,4.0
3650,7,11,7,3,1,3,-1,-8,True,11,-8,2.875,5.817154434453817,6.154266812545585,23.0
3651,-2,5,3,4,22,2,1,6,True,22,-2,5.125,7.259230577094832,8.507349763586777,41.0
3652,-2,-4,0,-5,0,6,-4,-4,True,6,-5,-1.625,3.6228441865473595,3.758324094593227,-13.0
3653,0,1,6,24,13,8,3,11,True,24,0,8.25,7.851296526234195,11.045361017187261,66.0
3654,-10,2,7,2,1,-1,2,15,True,15,-10,2.25,7.045768740375825,6.96419413859206,18.0
3655,-4,-6,-8,-14,-10,1,4,-4,True,4,-14,-5.125,5.792544469278714,7.458216945088149,-41.0
3656,-2,10,-4,3,-4,-3,1,14,True,14,-4,1.875,6.791538853603062,6.623820649745885,15.0
3657,-9,-7,8,-4,-5,-8,-3,3,True,8,-9,-3.125,5.841660722773962,6.294839156007086,-25.0
3658,-19,-6,2,-1,-3,-2,1,-2,True,2,-19,-3.75,6.627863262664025,7.245688373094719,-30.0
3659,-5,-5,-11,-7,-6,-10,-6,-14,True,-5,-14,-8.0,3.295017884191656,8.573214099741124,-64.0
3660,10,-1,-1,2,4,0,0,-11,True,10,-11,0.375,5.8782285961479435,5.5113519212621505,3.0
3661,12,-3,-3,-6,-9,-7,-5,-14,True,12,-14,-4.375,7.520210863305059,8.284020762890446,-35.0
3662,-4,-8,-1,0,2,0,-2,-6,True,2,-8,-2.375,3.37797487937881,3.952847075210474,-19.0
3663,-14,-13,1,-4,-2,-3,-4,1,True,1,-14,-4.75,5.7507763451058125,7.176350047203662,-38.0
3664,4,1,10,6,3,1,-3,-2,True,10,-3,2.5,4.242640687119285,4.69041575982343,20.0
3665,26,7,-9,-3,1,-4,-3,0,True,26,-9,1.875,10.776131031126154,10.253048327204938,15.0
3666,5,-3,3,6,6,2,2,6,True,6,-3,3.375,3.113908889391045,4.458138625031752,27.0
3667,-15,-11,-3,-4,-6,-5,-2,-6,True,-2,-15,-6.5,4.375255094603872,7.681145747868608,-52.0
3668,9,2,-10,-3,-4,-2,1,-3,True,9,-10,-1.25,5.496752287877426,5.291502622129181,-10.0
3669,-17,-3,-14,-3,-7,-2,-1,-9,True,-1,-17,-7.0,5.9281411203561225,8.930285549745875,-56.0
3670,-13,-11,7,1,9,4,-1,-2,True,9,-13,-0.75,7.905694150420948,7.433034373659253,-6.0
3671,-1,0,4,1,1,3,1,-1,True,4,-1,1.0,1.7728105208558367,1.9364916731037085,8.0
3672,2,5,-3,-3,-7,-4,-3,-11,True,5,-11,-3.0,4.928053803045811,5.5,-24.0
3673,-2,11,3,-1,0,-3,-1,6,True,11,-3,1.625,4.779046527738113,4.756574397610112,13.0
3674,-4,-8,-5,-2,-1,-1,1,8,True,8,-8,-1.5,4.7509397566616824,4.69041575982343,-12.0
3675,-5,-3,-6,-5,-5,-3,0,3,True,3,-6,-3.0,3.070597894314954,4.153311931459037,-24.0
3676,-4,-1,0,-4,-5,-2,0,8,True,8,-5,-1.0,4.105745103771404,3.968626966596886,-8.0
3677,1,4,-1,-1,0,2,1,-3,True,4,-3,0.375,2.1339098923270936,2.03100960115899,3.0
3678,2,-1,-1,-2,1,-1,-1,2,True,2,-2,-0.125,1.5526475085202969,1.4577379737113252,-1.0
3679,8,-1,5,0,-5,-3,-1,-2,True,8,-5,0.125,4.2907708265199025,4.0155946010522525,1.0
3680,-3,5,0,-3,0,-4,-1,2,True,5,-4,-0.5,2.9760952365713798,2.8284271247461903,-4.0
3681,1,-1,1,1,5,1,-1,-3,True,5,-3,0.5,2.3299294900428698,2.23606797749979,4.0
3682,-4,3,2,-2,-6,-2,-1,2,True,3,-6,-1.0,3.1622776601683795,3.122498999199199,-8.0
3683,3,-1,-2,-3,-1,1,1,1,True,3,-3,-0.125,1.9594095320493146,1.8371173070873836,-1.0
3684,5,3,1,2,1,0,-3,-5,True,5,-5,0.5,3.2071349029490923,3.0413812651491097,4.0
3685,-1,5,4,3,2,2,2,6,True,6,-1,2.875,2.1671244937540095,3.517811819867572,23.0
3686,-2,-4,4,-2,1,-1,0,2,True,4,-4,-0.25,2.5495097567963922,2.3979157616563596,-2.0
3687,-5,-2,1,-1,-1,-3,-4,-1,True,1,-5,-2.0,1.927248223318863,2.692582403567252,-16.0
3688,-4,-1,-5,-1,-2,-2,0,-6,True,0,-6,-2.625,2.1339098923270936,3.29772648956823,-21.0
3689,-2,1,0,-1,-1,0,0,-7,True,1,-7,-1.25,2.4928469095164494,2.6457513110645907,-10.0
3690,6,7,3,0,1,1,-1,3,True,7,-1,2.5,2.8284271247461903,3.640054944640259,20.0
3691,4,0,2,-2,-1,-1,-1,-7,True,4,-7,-0.75,3.1959796173138706,3.082207001484488,-6.0
3692,-4,-5,-5,-4,-1,0,-1,-3,True,0,-5,-2.875,1.9594095320493146,3.409545424246464,-23.0
3693,-1,8,4,1,1,0,2,6,True,8,-1,2.625,3.113908889391045,3.9210967853395307,21.0
3694,0,4,5,2,2,3,3,10,True,10,0,3.625,2.9730936268953445,4.568916720624267,29.0
3695,-6,-2,-3,1,-1,0,0,-8,True,1,-8,-2.375,3.1594529363709243,3.7914377220257753,-19.0
3696,-8,-9,-6,0,-2,-1,-2,0,True,0,-9,-3.5,3.625307868699863,4.873397172404482,-28.0
3697,0,-1,1,-2,-2,0,-1,4,True,4,-2,-0.125,1.9594095320493146,1.8371173070873836,-1.0
3698,-4,3,0,-1,0,1,2,0,True,3,-4,0.125,2.100170061141308,1.9685019685029528,1.0
3699,0,2,-1,-1,-2,-1,-2,6,True,6,-2,0.125,2.6958963523950885,2.5248762345905194,1.0
3700,1,-5,-3,1,-1,-1,4,0,True,4,-5,-0.5,2.7255405754769875,2.598076211353316,-4.0
3701,-3,4,4,1,3,2,1,8,True,8,-3,2.5,3.1622776601683795,3.872983346207417,20.0
3702,0,2,-2,-1,0,-1,-1,5,True,5,-2,0.25,2.2519832529192065,2.1213203435596424,2.0
3703,7,4,-1,-1,-1,0,-2,-4,True,7,-4,0.25,3.5355339059327378,3.3166247903554,2.0
3704,3,1,0,0,-1,-1,-1,-2,True,3,-2,-0.125,1.5526475085202969,1.4577379737113252,-1.0
3705,-5,3,-1,-1,-1,-2,-3,-6,True,3,-6,-2.0,2.7774602993176543,3.278719262151,-16.0
3706,2,-2,0,0,1,-2,0,-11,True,2,-11,-1.5,4.070801956792859,4.092676385936225,-12.0
3707,0,6,5,1,-2,-1,1,-5,True,6,-5,0.625,3.583194903195431,3.409545424246464,5.0
3708,-3,-5,0,-1,-2,0,-2,-5,True,0,-5,-2.25,1.9820624179302297,2.9154759474226504,-18.0
3709,-1,-4,-3,-4,-4,-2,0,-6,True,0,-6,-3.0,1.927248223318863,3.5,-24.0
3710,0,5,-2,-1,-1,-1,-2,-3,True,5,-3,-0.625,2.445841952609133,2.3717082451262845,-5.0
3711,-4,-5,-3,-1,-1,0,1,1,True,1,-5,-1.5,2.2677868380553634,2.598076211353316,-12.0
3712,-5,-3,-6,-2,0,-1,-3,8,True,8,-6,-1.5,4.309458036856673,4.301162633521313,-12.0
3713,0,0,-2,-3,-3,-3,0,0,True,0,-3,-1.375,1.5059406173077154,1.9685019685029528,-11.0
3714,4,-7,-6,0,-1,0,-1,-1,True,4,-7,-1.5,3.505098327538656,3.605551275463989,-12.0
3715,5,4,8,4,1,-1,0,1,True,8,-1,2.75,3.011881234615431,3.9370039370059056,22.0
3716,-4,-1,5,2,3,-1,0,-1,True,5,-4,0.375,2.8252686345094435,2.669269563007828,3.0
3717,-1,-3,-4,1,2,0,-1,-3,True,2,-4,-1.125,2.100170061141308,2.2638462845343543,-9.0
3718,2,0,1,-3,-3,0,-1,-4,True,2,-4,-1.0,2.138089935299395,2.23606797749979,-8.0
3719,1,-8,-1,-4,-2,-1,0,1,True,1,-8,-1.75,3.011881234615431,3.3166247903554,-14.0
3720,2,2,2,-1,-2,-1,0,-1,True,2,-2,0.125,1.6420805617960925,1.541103500742244,1.0
3721,-1,0,-3,1,0,-1,0,-3,True,1,-3,-0.875,1.4577379737113252,1.620185174601965,-7.0
3722,-1,6,-2,-3,0,-2,-4,-4,True,6,-4,-1.25,3.24037034920393,3.278719262151,-10.0
3723,-2,-4,-7,-3,-1,0,-1,0,True,0,-7,-2.25,2.3754698783308412,3.1622776601683795,-18.0
3724,-5,-1,-1,-1,-1,-2,1,0,True,1,-5,-1.25,1.752549163769328,2.0615528128088303,-10.0
3725,-3,-8,-5,-5,-1,0,0,-3,True,0,-8,-3.125,2.7998724460742337,4.077376607575022,-25.0
3726,-2,2,6,-2,2,0,0,8,True,8,-2,1.75,3.615443067098218,3.8078865529319543,14.0
3727,-6,-16,3,1,-4,-3,-3,-3,True,3,-16,-3.875,5.667892024377317,6.566962768281849,-31.0
3728,13,2,-5,2,1,-1,2,-1,True,13,-5,1.625,5.180664601601392,5.111262075065218,13.0
3729,-2,-4,-1,9,15,0,-1,1,True,15,-4,2.125,6.468329437674439,6.41287766919033,17.0
3730,-7,4,13,5,1,0,2,9,True,13,-7,3.375,6.022280061808579,6.566962768281849,27.0
3953,11,14,-3,-1,-5,-3,-1,2,True,14,-5,1.75,6.98467710676122,6.7638746292343415,14.0
3954,-6,-11,-9,-5,-11,-1,3,-1,True,3,-11,-5.125,5.139135558215436,7.026734661277598,-41.0
3955,-8,-24,-12,-4,-1,-3,0,-1,True,0,-24,-6.625,8.105333341166702,10.068515282801133,-53.0
3956,22,4,9,2,-3,-3,-2,1,True,22,-3,3.75,8.413424646700907,8.717797887081348,30.0
3957,-3,-5,7,0,-1,4,0,1,True,7,-5,0.375,3.77728171346236,3.553167600887974,3.0
3958,-7,-9,7,1,-2,1,-1,-7,True,7,-9,-2.125,5.330170192940773,5.4198708471697,-17.0
3959,7,12,8,1,-1,-1,-1,-1,True,12,-1,3.0,5.209880722517277,5.722761571129799,24.0
3960,-9,-9,-1,2,0,1,-2,-3,True,2,-9,-2.625,4.240535680446853,4.756574397610112,-21.0
3961,-3,-2,-8,-6,-2,-1,0,-5,True,0,-8,-3.375,2.7222627143085005,4.227883631321941,-27.0
3962,17,7,-10,-4,-11,-6,-4,-12,True,17,-12,-2.875,10.034761012173064,9.81707695803593,-23.0
3963,-3,9,5,2,3,0,-1,0,True,9,-3,1.875,3.7961446607992015,4.0155946010522525,15.0
3964,-2,-4,6,-2,-6,-3,-2,-6,True,6,-6,-2.375,3.77728171346236,4.257346591481601,-19.0
3965,3,-19,-1,0,-2,1,1,-1,True,3,-19,-2.25,6.943650748294136,6.87386354243376,-18.0
3966,15,26,5,-4,-3,-1,-1,2,True,26,-4,4.875,10.46678419709566,10.937321427113678,39.0
3967,0,17,13,6,3,2,-1,2,True,17,-1,5.25,6.453127702351561,8.0,42.0
3968,-6,4,-10,-3,-1,-3,-5,0,True,4,-10,-3.0,4.208834246473209,4.949747468305833,-24.0
3969,2,-15,1,-1,-2,1,1,5,True,5,-15,-1.0,6.023762469230862,5.722761571129799,-8.0
3970,-20,-10,-9,1,-2,-1,-1,3,True,3,-20,-4.875,7.623975340988453,8.638576271585498,-39.0
3971,2,-17,-9,-7,-23,-7,-1,-3,True,2,-23,-8.125,8.305548919676703,11.241663577958558,-65.0
3972,4,-8,-3,-2,0,3,2,4,True,4,-8,0.0,4.174754056057845,3.905124837953327,0.0
3973,4,45,26,3,0,1,0,-2,True,45,-2,9.625,16.86024487197197,18.476336216901878,77.0
3974,3,-3,1,1,3,-3,-1,-10,True,3,-10,-1.125,4.2907708265199025,4.168333000133266,-9.0
3975,-5,-29,-16,-1,3,0,3,0,True,3,-29,-5.625,11.262294868910407,11.942570912496187,-45.0
3976,-2,-6,2,-4,1,-1,2,8,True,8,-6,0.0,4.309458036856673,4.031128874149275,0.0
3977,21,7,-11,0,8,-1,-3,1,True,21,-11,2.75,9.452890714334046,9.260129588726068,22.0
3978,-10,37,-1,2,2,0,-2,1,True,37,-10,3.625,14.02994247009893,13.615248804190102,29.0
3979,25,4,-19,-5,-1,-4,-1,3,True,25,-19,0.25,12.267844146385297,11.478240283248997,2.0
3980,-3,-24,-10,-1,-1,-2,0,1,True,1,-24,-5.0,8.383657572069263,9.300537618869138,-40.0
3981,-32,-26,-16,-4,1,0,-1,3,True,3,-32,-9.375,13.521807782773932,15.744046493833789,-75.0
3982,-9,-46,10,13,0,1,0,-2,True,13,-46,-4.125,18.263449056204344,17.574839970821927,-33.0
3983,17,8,11,0,2,-3,-3,2,True,17,-3,4.25,7.126409634992524,7.905694150420948,34.0
3984,17,9,-15,-13,-6,-3,0,2,True,17,-15,-1.125,10.709641850754327,10.080922576827977,-9.0
3985,-1,7,11,-3,-6,1,-1,-4,True,11,-6,0.5,5.756983337031395,5.408326913195984,4.0
3986,13,7,2,3,19,10,0,0,True,19,0,6.75,6.840008354213778,9.300537618869138,54.0
3987,-28,2,6,3,1,2,-3,-3,True,6,-28,-2.5,10.730463976122241,10.344080432788601,-20.0
3988,-19,38,28,1,-8,-3,0,1,True,38,-19,4.75,18.83575627060709,18.24828759089466,38.0
3989,-17,-4,-4,-3,2,2,1,1,True,2,-17,-2.75,6.318905872741849,6.519202405202649,-22.0
3990,1,6,2,-1,-1,-2,1,2,True,6,-2,1.0,2.5071326821120348,2.5495097567963922,8.0
3991,9,-6,7,5,1,-1,0,-2,True,9,-6,1.625,5.0124844139408555,4.962358310319802,13.0
3992,16,10,1,14,9,3,-1,-1,True,16,-1,6.375,6.759913355319621,8.979142498033985,51.0
3993,28,65,22,-2,0,-7,1,1,True,65,-7,13.5,24.1720026949716,26.334388164527386,108.0
3994,4,6,18,1,-3,-2,-1,-1,True,18,-3,2.75,6.881652625434014,7.0,22.0
3995,-8,-27,-3,-3,2,0,-2,-12,True,2,-27,-6.625,9.349369726656139,10.971554128745845,-53.0
3996,-12,-17,-15,-9,-7,-2,-2,-3,True,-2,-17,-8.375,5.902481318419036,10.031201323869439,-67.0
3997,9,8,-5,-2,-11,-6,1,2,True,9,-11,-0.5,6.907552802135189,6.48074069840786,-4.0
3998,19,13,-3,-6,-10,-9,-2,-4,True,19,-10,-0.25,10.525479290071036,9.848857801796104,-2.0
3999,-27,-26,-10,-7,-3,2,2,8,True,8,-27,-7.625,12.927683473847896,14.295978455495797,-61.0
4000,-10,24,-1,-3,-3,-1,-4,-3,True,24,-10,-0.125,10.148011768673845,9.493418773023762,-1.0
4001,-3,-5,-2,6,25,-8,0,10,True,25,-8,2.875,10.669549461635468,10.386289038920495,23.0
4002,-5,6,-5,9,5,3,-1,0,True,9,-5,1.5,5.1269595556932455,5.024937810560445,12.0
4003,-4,-6,-14,-3,0,1,-6,-13,True,1,-14,-5.625,5.475595205741825,7.607562027351469,-45.0
4004,13,11,9,12,7,2,-1,-1,True,13,-1,6.5,5.756983337031395,8.440971508067067,52.0
4005,-25,-28,-17,-6,-22,-2,1,-3,True,1,-28,-12.75,11.535659000309803,16.703293088490067,-102.0
4006,-6,8,-3,-10,6,-6,-5,-9,True,8,-10,-3.125,6.642665127793212,6.955213871621778,-25.0
4007,9,-22,0,-3,-4,2,2,7,True,9,-22,-1.125,9.538455999643906,8.993052874302474,-9.0
4008,9,-7,-3,12,2,3,-2,-2,True,12,-7,1.5,6.391959234627741,6.164414002968976,12.0
4009,17,13,-2,2,22,3,-1,-1,True,22,-2,6.625,9.334077351297235,10.960155108391486,53.0
4010,-11,-33,-5,-5,-11,1,1,2,True,2,-33,-7.625,11.475906437899734,13.167194082263693,-61.0
4011,16,17,-11,-12,12,0,-2,1,True,17,-12,2.625,11.363318177363512,10.948744220229095,21.0
4012,-14,-6,-3,-1,-3,1,0,0,True,1,-14,-3.25,4.891683905218266,5.612486080160912,-26.0
4013,-4,-16,-5,-12,-32,-10,0,0,True,0,-32,-9.875,10.588909292273685,13.986600730699365,-79.0
4014,-23,-21,-8,-6,-12,-1,-3,-21,True,-1,-23,-11.875,8.757649717328764,14.426538046253508,-95.0
4015,-12,-11,2,5,10,0,-1,-7,True,10,-12,-1.75,7.7413546249071565,7.44983221287567,-14.0
4016,16,10,5,5,6,2,6,-6,True,16,-6,5.5,6.279217421667402,8.04673846971554,44.0
4017,-5,2,5,10,24,16,2,-11,True,24,-11,5.375,11.21144185961059,11.784523749392676,43.0
4018,0,-5,7,1,-6,-2,-2,-4,True,7,-6,-1.375,4.138236339311712,4.107919181288746,-11.0
4019,-15,-25,-12,-1,-1,-5,0,7,True,7,-25,-6.5,10.22601723895616,11.565033506220377,-52.0
4020,10,29,11,1,-1,0,-3,2,True,29,-3,6.125,10.534806256269873,11.602801385872294,49.0
4021,13,-4,5,6,-19,3,5,10,True,13,-19,2.375,9.970492178709849,9.624188277460078,19.0
4022,1,-7,-12,-12,-11,-5,-3,-2,True,1,-12,-6.375,4.955156044825574,7.881941385217223,-51.0
4023,6,23,-2,7,18,-2,-3,6,True,23,-3,6.625,9.5608950567253,11.129914644776033,53.0
4024,-24,-51,-14,-3,-7,0,3,16,True,16,-51,-10.0,20.339967692065926,21.494185260204677,-80.0
4025,-2,7,-1,-3,2,0,0,2,True,7,-3,0.625,3.113908889391045,2.979093821953246,5.0
4026,11,9,14,9,8,4,-2,-2,True,14,-2,6.375,5.8782285961479435,8.418729120241368,51.0
4027,-6,-10,-5,-3,0,-6,-1,2,True,2,-10,-3.625,3.8890872965260113,5.135659646043535,-29.0
4028,3,-13,-12,-6,-1,2,-1,-1,True,3,-13,-3.625,6.093028803476971,6.754628043053148,-29.0
4029,-4,-22,-15,-5,15,4,2,4,True,15,-22,-2.625,11.685613866142052,11.241663577958558,-21.0
4030,-7,-15,5,2,-4,0,-2,4,True,5,-15,-2.125,6.577830732305077,6.509608283145768,-17.0
4031,-10,-10,1,-8,-17,-9,-5,-3,True,1,-17,-7.625,5.3967582862307255,9.144670579085941,-61.0
4032,-21,-1,-3,0,-2,-3,-1,-1,True,0,-21,-4.0,6.948792289723034,7.632168761236874,-32.0
4033,10,30,11,5,3,-2,-6,-17,True,30,-17,4.25,13.83318990172342,13.619838471876236,34.0
4034,-2,15,-3,-4,-9,-1,-2,-3,True,15,-9,-1.125,6.957780844904091,6.604922406811453,-9.0
4035,-49,-49,-16,-8,-16,-7,-6,-16,True,-6,-49,-20.875,17.860071188467945,26.737146444600253,-167.0
4036,-20,-18,-3,0,3,2,3,13,True,13,-20,-2.5,11.173949295443524,10.747092630102339,-20.0
4037,39,28,-1,-4,-3,-5,0,4,True,39,-5,7.25,16.696877381286427,17.219175357722563,58.0
4038,12,26,7,3,1,0,-5,-26,True,26,-26,2.25,14.829988922065027,14.053469322555197,18.0
4039,2,-14,0,0,-1,1,0,-15,True,2,-15,-3.375,6.926914382114366,7.305819598101229,-27.0
4040,24,8,2,-1,-1,-1,3,29,True,29,-1,7.875,11.957514075138814,13.679364020304453,63.0
4041,33,27,11,5,4,8,3,0,True,33,0,11.375,12.05863650193148,16.019519343600795,91.0
4042,-17,-1,-2,-2,-2,-9,-15,5,True,5,-17,-5.375,7.5769858311675815,8.895223437328598,-43.0
4043,-13,-3,-1,-4,2,2,-7,1,True,2,-13,-2.875,5.166858675387645,5.623610939600996,-23.0
4044,7,9,3,-1,13,7,-17,2,True,13,-17,2.875,9.140764269390795,9.020809276334358,23.0
4045,3,13,-3,-3,-2,3,5,19,True,19,-3,4.375,7.945124291035352,8.62409415533017,35.0
4046,-76,5,3,7,1,-6,7,-18,True,7,-76,-9.625,28.101537832855847,27.993302770484227,-77.0
4047,-22,-4,4,2,-7,4,-10,12,True,12,-22,-2.625,10.51444584505391,10.179636535751166,-21.0
4048,27,-4,2,-4,-8,9,7,15,True,27,-8,5.5,11.600492600378164,12.165525060596439,44.0
4049,-1,-4,0,0,3,27,50,6,True,50,-4,10.125,18.7878190021392,20.282381516971817,81.0
4050,26,4,-2,-8,-22,-24,89,4,True,89,-24,8.375,36.244950387211574,34.92312987118995,67.0
4051,22,11,3,5,15,2,-5,2,True,22,-5,6.875,8.609587678861281,10.588909292273685,55.0
4052,-28,2,-1,2,1,0,13,-25,True,13,-28,-4.5,14.272851351929848,14.089002803605371,-36.0
4053,79,0,-9,-4,-11,-22,-4,11,True,79,-22,5.0,31.350552512789033,29.748949561287034,40.0
4054,2,-7,-4,-2,-3,-5,-29,-7,True,2,-29,-6.875,9.402697181432266,11.163556780883054,-55.0
4055,-26,1,8,2,7,-6,-10,-20,True,8,-26,-5.5,12.467099559583673,12.893796958227627,-44.0
4056,53,21,1,2,-6,-6,-13,2,True,53,-13,6.75,21.164323079857088,20.91650066335189,54.0
4057,-29,-21,-2,1,-6,-4,-39,3,True,3,-39,-12.125,15.551182775412476,18.937396864405624,-97.0
4347,5,6,-8,-2,-1,1,3,-2,True,6,-8,0.25,4.527692569068709,4.242640687119285,2.0
4348,22,-5,-1,3,0,2,-3,-1,True,22,-5,2.125,8.425090080061034,8.162413858657255,17.0
4349,1,16,-2,0,1,-1,-2,-22,True,16,-22,-1.125,10.287822204640092,9.68891118753805,-9.0
4350,11,4,9,2,2,0,1,8,True,11,0,4.625,4.138236339311712,6.031169040907409,37.0
4351,-33,17,0,-1,0,0,1,6,True,17,-33,-1.25,14.159802258506296,13.30413469565007,-10.0
4352,12,-4,-4,-3,-3,-2,-2,6,True,12,-4,0.0,5.830951894845301,5.454356057317857,0.0
4353,27,10,7,0,1,3,1,15,True,27,0,8.0,9.273618495495704,11.800423721205947,64.0
4354,-20,-8,-4,0,4,4,-12,8,True,8,-20,-3.5,9.42640667789921,9.486832980505138,-28.0
4355,11,2,1,0,0,-8,-9,-1,True,11,-9,-0.5,6.2105900340811875,5.830951894845301,-4.0
4356,7,-4,-6,-1,-4,-1,2,8,True,8,-6,0.125,5.166858675387645,4.834769901453429,1.0
4357,8,12,7,4,0,5,1,0,True,12,0,4.625,4.274091382136927,6.113509630318742,37.0
4358,-27,-1,-2,-2,-2,-2,2,-1,True,2,-27,-4.375,9.241791724861272,9.68891118753805,-35.0
4359,-15,-17,-3,-1,1,-1,-1,-14,True,1,-17,-6.375,7.539183358579741,9.506576670915772,-51.0
4360,20,15,-2,-6,-1,-5,-7,-13,True,20,-13,0.125,11.394704283757683,10.659502802663921,1.0
4361,-14,16,-2,-2,-2,-4,-1,1,True,16,-14,-1.0,8.228869042236953,7.762087348130012,-8.0
4362,-7,-6,1,-3,-1,-2,0,-11,True,1,-11,-3.625,4.0686080455816125,5.25594901040716,-29.0
4363,16,9,13,5,3,4,-5,-26,True,16,-26,2.375,13.157697366940766,12.534951136721675,19.0
4364,14,3,1,-1,-23,-25,-9,-20,True,14,-25,-7.5,14.101671633432074,15.173990905493518,-60.0
4365,-30,-21,-2,1,1,0,1,3,True,3,-30,-5.875,12.426210777454013,13.024016277631105,-47.0
4366,11,-22,-2,2,6,4,-1,-7,True,11,-22,-1.125,10.034761012173064,9.453835200594519,-9.0
4367,14,-11,-10,-6,-10,-3,-13,-4,True,14,-13,-5.375,8.584662402880417,9.663074045043844,-43.0
4368,3,10,-2,3,2,-8,-1,10,True,10,-8,2.125,6.0341291240504855,6.031169040907409,17.0
4369,-6,-12,-1,-2,2,-1,7,20,True,20,-12,0.875,9.508454884244562,8.937281465859739,7.0
4370,6,11,-6,-2,1,3,-4,-13,True,11,-13,-0.5,7.464200272921789,7.0,-4.0
4371,6,-2,1,-3,-8,-4,-1,1,True,6,-8,-1.25,4.131758532565591,4.06201920231798,-10.0
4372,-21,-9,3,2,-6,8,10,10,True,10,-21,-0.375,10.914439976471536,10.216408370851275,-3.0
4373,-11,-4,-4,-4,-4,7,8,-3,True,8,-11,-1.875,6.311836952447814,6.194755846681933,-15.0
4374,13,4,1,5,-2,3,-39,-7,True,13,-39,-2.75,15.736672365619649,14.974979131871937,-22.0
4375,-17,4,-1,-1,3,13,10,1,True,13,-17,1.5,9.007933011676826,8.558621384311845,12.0
4376,-11,8,29,7,6,3,10,-9,True,29,-11,5.375,12.36281867998903,12.75245074485685,43.0
4377,-10,7,-4,2,3,-2,-1,8,True,8,-10,0.375,5.926634795564849,5.5565276927232174,3.0
4378,2,-29,-13,-7,-2,-3,3,0,True,3,-29,-6.125,10.588909292273685,11.645814698852115,-49.0
4379,-3,12,4,4,4,1,0,12,True,12,-3,4.25,5.365231988061121,6.576473218982953,34.0
4380,-15,-2,0,-4,-2,-11,-2,-21,True,0,-21,-7.125,7.642690251849428,10.093314619093174,-57.0
4381,13,5,-11,-2,2,2,7,16,True,16,-11,4.0,8.48528137423857,8.888194417315589,32.0
4382,-22,6,0,0,1,-4,-2,-17,True,6,-22,-4.75,9.63253415699702,10.18577439373168,-38.0
4383,-19,-14,-3,0,3,6,1,-12,True,6,-19,-4.75,9.067209367511357,9.72111104761179,-38.0
4384,18,4,4,2,11,3,5,19,True,19,2,8.25,6.881652625434014,10.464224768228174,66.0
4385,-7,2,-3,-1,-6,-2,9,19,True,19,-7,1.375,8.700369450283624,8.253787009609589,11.0
4386,5,6,4,3,-1,-1,-5,-10,True,6,-10,0.125,5.514591035218685,5.1599418601375735,1.0
4387,7,-2,-1,-1,1,-3,6,4,True,7,-3,1.375,3.814914340921881,3.824264635194589,11.0
4388,-1,11,-4,-4,-4,5,8,18,True,18,-4,3.625,8.262436513696013,8.536685539481937,29.0
4389,4,-9,-3,6,5,-11,-12,-9,True,6,-12,-3.625,7.6333385319175475,8.007808689023483,-29.0
4390,25,14,0,-5,-7,0,1,1,True,25,-7,3.625,10.636023693091325,10.588909292273685,29.0
4391,4,-7,-2,-3,-27,-6,11,-15,True,11,-27,-5.625,11.562717179427532,12.19118534023661,-45.0
4392,-6,-1,0,3,-1,-14,-10,-8,True,3,-14,-4.625,5.804862493757158,7.132671308843553,-37.0
4393,6,-3,1,-2,-3,6,2,-5,True,6,-5,0.25,4.200340122282616,3.9370039370059056,2.0
4394,-10,-8,-1,-9,-6,-2,6,2,True,6,-10,-3.5,5.707138387268051,6.383572667401852,-28.0
4395,15,8,-4,-3,12,5,-4,7,True,15,-4,4.5,7.4258236676383005,8.276472678623424,36.0
4396,0,14,2,1,3,-12,-9,-3,True,14,-12,-0.5,7.946247991527645,7.44983221287567,-4.0
4397,-15,11,8,7,1,-7,2,18,True,18,-15,3.125,10.412046594484405,10.228636272739392,25.0
4398,-8,-18,-1,-3,-9,6,-6,-2,True,6,-18,-5.125,7.019106577254482,8.329165624478842,-41.0
4399,-3,16,0,4,8,-5,-1,-1,True,16,-5,2.25,6.881652625434014,6.819090848492928,18.0
4400,13,-8,-7,-7,-4,0,0,7,True,13,-8,-0.75,7.478540728549349,7.035623639735144,-6.0
4680,-12,2,5,-2,-2,-2,-1,-6,True,5,-12,-2.25,5.092010548749033,5.267826876426369,-18.0
4681,0,4,0,2,-2,-3,-4,-8,True,4,-8,-1.375,3.7392703642746743,3.758324094593227,-11.0
4682,-3,0,-10,-5,-2,1,-1,1,True,1,-10,-2.375,3.7008686239082538,4.198213905936666,-19.0
4683,2,19,2,0,1,-1,0,-2,True,19,-2,2.625,6.759913355319621,6.846531968814577,21.0
4684,4,-7,-2,-1,-2,-3,-6,-6,True,4,-7,-2.875,3.563204817496262,4.401704215414752,-23.0
4685,6,3,-7,-4,-3,-3,-1,0,True,6,-7,-1.125,4.120939559996343,4.0155946010522525,-9.0
4686,-10,-32,-8,-4,-1,1,0,6,True,6,-32,-6.0,11.674147261608201,12.459935794377111,-48.0
4687,10,5,-6,-9,-3,-1,5,3,True,10,-9,0.5,6.369570517030843,5.979130371550699,4.0
4688,2,20,3,-2,0,0,1,-3,True,20,-3,2.625,7.2886898685566255,7.305819598101229,21.0
4689,-10,-4,5,3,3,-1,-1,2,True,5,-10,-0.375,4.838461975226661,4.541475531146237,-3.0
4690,-1,-17,-9,-5,-3,-2,-2,-6,True,-1,-17,-5.625,5.289815011618351,7.4916620318858484,-45.0
4691,3,-8,-7,-1,1,1,-2,2,True,3,-8,-1.375,4.103569874424672,4.077376607575022,-11.0
4692,3,15,2,1,0,-1,2,2,True,15,-1,3.0,5.0142653642240695,5.5677643628300215,24.0
4693,1,-8,-7,-9,-5,-4,-2,2,True,2,-9,-4.0,4.070801956792859,5.522680508593631,-32.0
4694,2,11,8,6,2,-1,0,3,True,11,-1,3.875,4.120939559996343,5.465802777268862,31.0
4695,2,-1,6,3,1,0,0,0,True,6,-1,1.375,2.2638462845343543,2.5248762345905194,11.0
4696,-6,2,7,2,-1,-2,4,1,True,7,-6,0.875,3.9438016467073274,3.7914377220257753,7.0
4697,-16,-14,-17,-9,-6,-2,0,0,True,0,-17,-8.0,7.0710678118654755,10.380269746013347,-64.0
4698,10,0,-7,-8,-1,-1,-1,-5,True,10,-8,-1.625,5.604526232048012,5.488624600025037,-13.0
4699,-8,12,2,2,0,1,-1,-1,True,12,-8,0.875,5.514591035218685,5.232112384114087,7.0
4700,4,10,4,1,-1,1,-2,-6,True,10,-6,1.375,4.779046527738113,4.677071733467427,11.0
4701,8,-17,-13,-5,-2,-3,-2,-1,True,8,-17,-4.375,7.670677004951108,8.403868156985805,-35.0
4702,12,-1,-11,1,-1,-1,1,9,True,12,-11,1.125,6.978282637685906,6.623820649745885,9.0
4703,6,-4,0,0,1,-3,-4,-5,True,6,-5,-1.125,3.6425069859723185,3.588175023601831,-9.0
4704,-6,-4,2,3,0,0,2,-3,True,3,-6,-0.75,3.24037034920393,3.122498999199199,-6.0
4705,1,3,0,0,-4,-4,0,3,True,3,-4,-0.125,2.6958963523950885,2.5248762345905194,-1.0
4706,-9,1,9,4,1,-3,-2,0,True,9,-9,0.125,5.249149590988185,4.911720676097125,1.0
4707,-5,-25,-6,-2,-3,-3,-5,-18,True,-2,-25,-8.375,8.416607731995457,11.49456393257265,-67.0
4708,-6,-15,-4,-2,-2,-2,-3,0,True,0,-15,-4.25,4.6827952580239325,6.103277807866851,-34.0
4709,-11,7,1,2,0,-2,-1,6,True,7,-11,0.25,5.548487567410986,5.196152422706632,2.0
4710,11,15,9,0,-2,1,-1,-3,True,15,-3,3.75,6.860862086606068,7.433034373659253,30.0
4711,-9,-17,-9,-3,0,1,3,2,True,3,-17,-4.0,7.030545599636732,7.697402159170326,-32.0
4712,-2,8,-3,-2,-1,-1,0,2,True,8,-3,0.125,3.5228843701879127,3.29772648956823,1.0
4713,-5,18,6,4,4,-1,-1,3,True,18,-5,3.5,6.866065623255952,7.314369419163897,28.0
4714,3,-11,-5,0,0,-2,-6,-12,True,3,-12,-4.125,5.383506557731945,6.509608283145768,-33.0
4715,1,5,6,0,-1,1,0,3,True,6,-1,1.875,2.5319388392523003,3.020761493398643,15.0
4716,3,6,2,0,5,2,1,3,True,6,0,2.75,1.9820624179302297,3.3166247903554,22.0
4717,-3,2,4,-1,-5,-2,-2,-4,True,4,-5,-1.375,3.020761493398643,3.142451272494134,-11.0
4718,2,0,-1,-7,-8,0,0,-2,True,2,-8,-2.0,3.585685828003181,3.905124837953327,-16.0
4719,8,5,2,-3,-5,0,-1,3,True,8,-5,1.125,4.257346591481601,4.138236339311712,9.0
4720,-4,19,10,4,0,0,-2,-6,True,19,-6,2.625,8.262436513696013,8.162413858657255,21.0
4721,-16,-13,-4,-2,1,-1,0,1,True,1,-16,-4.25,6.584614100852293,7.483314773547883,-34.0
4722,4,21,3,-1,-1,-5,-2,4,True,21,-5,2.875,7.989949043284676,8.007808689023483,23.0
4723,4,-4,-1,1,3,-2,-3,-4,True,4,-4,-0.75,3.1052950170405937,3.0,-6.0
4724,-9,-13,-5,0,-1,-1,-1,2,True,2,-13,-3.5,5.1269595556932455,5.937171043518958,-28.0
4725,5,3,3,2,3,0,-2,-2,True,5,-2,1.5,2.5634797778466227,2.8284271247461903,12.0
4726,42,13,-6,1,0,-1,-2,-1,True,42,-6,5.75,15.636495771111889,15.716233645501712,46.0
4727,-1,-4,-2,1,0,-1,0,3,True,3,-4,-0.5,2.0701966780270626,2.0,-4.0
4728,-14,-17,-4,-6,-2,-2,1,-1,True,1,-17,-5.625,6.4793628434548145,8.268917704270613,-45.0
4729,2,7,4,-6,-10,-1,4,1,True,7,-10,0.125,5.642631098546644,5.2796780204857185,1.0
4730,-5,-8,-7,-3,10,-1,-3,-7,True,10,-8,-3.0,5.781744669956589,6.18465843842649,-24.0
4731,-5,13,5,3,0,2,-1,-3,True,13,-5,1.75,5.574175147179049,5.5,14.0
4732,-8,-4,0,0,-4,0,1,1,True,1,-8,-1.75,3.24037034920393,3.5,-14.0
4733,19,-13,-6,-4,1,-4,-1,-5,True,19,-13,-1.625,9.28804915700047,8.838834764831844,-13.0
4734,-8,1,0,4,3,2,-2,-5,True,4,-8,-0.625,4.138236339311712,3.9210967853395307,-5.0
4735,6,6,-4,0,-1,0,-2,2,True,6,-4,0.875,3.603074084326168,3.48209706929603,7.0
4736,3,-4,2,0,-3,-1,2,1,True,3,-4,0.0,2.5071326821120348,2.345207879911715,0.0
4737,-5,-22,-9,-5,-2,-1,-2,-17,True,-1,-22,-7.875,7.717096048940393,10.682930309610748,-63.0
4738,18,15,6,-1,2,3,1,5,True,18,-1,6.125,6.812540956626557,8.838834764831844,49.0
4739,-7,-28,-9,-4,-3,0,-3,2,True,2,-28,-6.5,9.365590516047865,10.908712114635714,-52.0
4740,29,37,6,0,-3,-2,-2,0,True,37,-3,8.125,15.74291223739387,16.818888191554162,65.0
4741,-6,-11,-2,-1,1,-1,0,5,True,5,-11,-1.875,4.793969425970806,4.860555523805895,-15.0
4742,-24,-14,4,0,-1,-1,1,-1,True,4,-24,-4.5,9.486832980505138,9.9498743710662,-36.0
4743,-16,-13,-5,-3,1,-2,-5,-9,True,1,-16,-6.5,5.756983337031395,8.440971508067067,-52.0
4744,-16,-16,-3,0,-2,-1,-1,0,True,0,-16,-4.875,6.937218462755804,8.116341540373963,-39.0
4745,-20,0,-3,-1,-1,-2,0,-4,True,0,-20,-3.875,6.664136424602537,7.339959127951599,-31.0
4746,-6,2,-1,-1,-3,-1,-3,-3,True,2,-6,-2.0,2.3299294900428698,2.958039891549808,-16.0
4747,16,15,4,4,3,1,-1,4,True,16,-1,5.75,6.273527146441853,8.215838362577491,46.0
4748,6,20,17,11,0,1,0,-3,True,20,-3,6.5,8.602325267042627,10.344080432788601,52.0
4749,-11,-11,-4,-4,-3,-3,-2,2,True,2,-11,-4.5,4.440077219405729,6.123724356957945,-36.0
4750,-7,-41,-14,-7,-3,-3,0,-3,True,0,-41,-9.75,13.317550182264862,15.819292019556375,-78.0
4751,-7,3,5,0,0,0,-1,-2,True,5,-7,-0.25,3.5355339059327378,3.3166247903554,-2.0
4752,-7,11,1,-4,-3,-4,0,5,True,11,-7,-0.125,5.817154434453817,5.44288526426931,-1.0
4753,3,10,-3,-3,0,0,3,3,True,10,-3,1.625,4.2067123233504535,4.257346591481601,13.0
4754,-16,-26,-6,-2,0,-1,-1,5,True,5,-26,-5.875,10.162079371017388,11.174748319313505,-47.0
4755,9,19,7,2,-2,-1,2,4,True,19,-2,5.0,6.761234037828133,8.06225774829855,40.0
4756,-9,-9,-10,-3,-1,0,-1,3,True,3,-10,-3.75,4.920801328471382,5.937171043518958,-30.0
4757,1,-1,-2,1,0,-1,0,12,True,12,-2,1.25,4.464142854857069,4.358898943540674,10.0
4758,19,23,11,4,3,3,0,-2,True,23,-2,7.625,9.132946637625464,11.450982490598786,61.0
4759,-4,10,2,0,-3,-2,-3,-3,True,10,-4,-0.375,4.627171304989074,4.344536799245692,-3.0
4760,-4,-18,-9,-5,-2,-3,0,-6,True,0,-18,-5.875,5.5917669070569405,7.866066361276137,-47.0
4761,-9,-20,11,3,0,1,-2,-1,True,11,-20,-2.125,9.109453488390116,8.782084035125148,-17.0
4762,4,-5,-1,-3,-1,-2,-1,-2,True,4,-5,-1.375,2.5599944196367748,2.7613402542968153,-11.0
4763,1,-12,-6,0,1,-2,-2,-3,True,1,-12,-2.875,4.356850107261306,4.987484335815001,-23.0
4764,-5,11,-8,-4,-4,-2,-1,-2,True,11,-8,-1.875,5.642631098546644,5.60133912560202,-15.0
4765,8,14,-5,0,-1,0,-2,-1,True,14,-5,1.625,6.2091522310675735,6.031169040907409,13.0
4766,9,-4,-2,0,1,0,-1,1,True,9,-4,0.5,3.8172540616821107,3.605551275463989,4.0
4767,1,9,13,4,4,2,0,2,True,13,0,4.375,4.438065859293728,6.031169040907409,35.0
4768,-4,-22,-7,-2,-1,-1,2,0,True,2,-22,-4.375,7.614600636746674,8.359126748650244,-35.0
4769,6,-1,1,-1,-5,1,5,4,True,6,-5,1.25,3.6547425158474374,3.640054944640259,10.0
4770,-7,-2,-1,1,0,0,-3,-2,True,1,-7,-1.75,2.4928469095164494,2.9154759474226504,-14.0
4771,4,-7,-10,-4,2,-2,-6,-24,True,4,-24,-5.875,8.659222993845512,10.00624804809475,-47.0
4772,-14,-23,-1,-1,-4,1,-2,-1,True,1,-23,-5.625,8.416607731995457,9.676001240181813,-45.0
4773,1,3,0,-1,-1,-2,1,4,True,4,-2,0.625,2.0658792662827956,2.03100960115899,5.0
4774,13,9,0,-1,1,-1,-3,-3,True,13,-3,1.875,5.89036743942418,5.820223363411408,15.0
4775,-13,-12,1,0,-1,-1,-2,-8,True,1,-13,-4.5,5.631543812693435,6.928203230275509,-36.0
4776,5,6,1,0,0,-2,0,1,True,6,-2,1.375,2.7222627143085005,2.8939592256975564,11.0
4777,5,-9,-1,1,1,1,-2,-11,True,5,-11,-1.875,5.436319658424385,5.4198708471697,-15.0
4778,-14,-16,-3,-1,-3,-2,0,1,True,1,-16,-4.75,6.497252166438187,7.713624310270756,-38.0
4779,-2,21,-2,-1,-2,0,-3,2,True,21,-3,1.625,7.981004233267175,7.640353394968063,13.0
4780,0,10,-2,0,-8,0,-3,-23,True,10,-23,-3.25,9.422617167523802,9.394147114027968,-26.0
4781,-2,-10,0,-2,-7,-4,-1,4,True,4,-10,-2.75,4.301162633521313,4.873397172404482,-22.0
4782,-15,3,6,0,1,0,1,9,True,9,-15,0.625,7.069805008424408,6.642665127793212,5.0
4783,-7,11,1,-1,3,0,-1,8,True,11,-7,1.75,5.625198409199194,5.545268253204709,14.0
4784,2,6,-2,-1,1,0,-2,0,True,6,-2,0.5,2.6186146828319083,2.5,4.0
4785,-1,-2,5,7,9,1,2,-4,True,9,-4,2.125,4.54933276112317,4.756574397610112,17.0
4786,41,20,2,3,3,0,-2,6,True,41,-2,9.125,14.52522436512231,16.36688730333291,73.0
4787,-3,-3,-4,-1,1,9,5,-2,True,9,-4,0.25,4.5591352563522705,4.272001872658765,2.0
4788,5,-4,-3,-2,0,0,-21,-10,True,5,-21,-4.375,7.945124291035352,8.62409415533017,-35.0
4789,2,11,-3,-5,-10,-2,5,4,True,11,-10,0.25,6.584614100852293,6.164414002968976,2.0
4790,-8,-2,3,3,5,2,3,0,True,5,-8,0.75,4.131758532565591,3.9370039370059056,6.0
4791,0,-5,5,1,3,-4,-2,13,True,13,-5,1.375,5.7802001942592165,5.578978401105349,11.0
4792,-2,3,1,-1,-4,-5,1,7,True,7,-5,0.0,3.8913824205360674,3.640054944640259,0.0
4793,-12,1,-4,0,1,-1,0,4,True,4,-12,-1.375,4.838461975226661,4.7302219821061255,-11.0
4794,-5,-13,1,-1,-3,0,5,0,True,5,-13,-2.0,5.31843156256751,5.361902647381804,-16.0
4795,8,2,-4,-5,7,-9,-3,4,True,8,-9,0.0,6.141195788629908,5.744562646538029,0.0
4796,-9,1,1,9,20,9,4,-12,True,20,-12,2.875,10.27392677745814,10.031201323869439,23.0
4797,16,8,2,1,-4,-3,-1,2,True,16,-4,2.625,6.545172703167252,6.661456297237114,21.0
4798,1,-1,-4,-4,-8,7,-19,9,True,9,-19,-2.375,8.814557763803501,8.580501150865256,-19.0
4799,4,-4,-1,-4,-13,-13,-3,-5,True,4,-13,-4.875,5.743008171432708,7.254309064273454,-39.0
4800,-8,0,3,0,3,5,9,4,True,9,-8,2.0,4.956957592256421,5.049752469181039,16.0
4801,0,6,-1,0,3,7,-5,-24,True,7,-24,-1.75,9.794313218831192,9.327379053088816,-14.0
4802,-4,1,1,-5,-11,-17,4,-8,True,4,-17,-4.875,6.998724373565718,8.162413858657255,-39.0
4803,-5,5,-2,3,-5,-2,0,13,True,13,-5,0.875,6.0341291240504855,5.7118298293979315,7.0
4804,-11,5,4,2,6,-2,5,-5,True,6,-11,0.5,6.023762469230862,5.656854249492381,4.0
4805,1,2,-4,-2,0,-1,-9,-13,True,2,-13,-3.25,5.230405611149374,5.873670062235365,-26.0
4806,11,-2,-7,-8,-10,-7,5,43,True,43,-10,3.125,17.658971819284545,16.81145442845443,25.0
4807,-20,-7,-9,-5,-3,6,7,1,True,7,-20,-3.75,8.762745818846641,9.013878188659973,-30.0
4808,40,-7,-5,-6,-6,-15,-2,-5,True,40,-15,-0.75,16.88405841530491,15.811388300841896,-6.0
4809,-8,-5,0,0,3,-17,-4,6,True,6,-17,-3.125,7.180081575342402,7.407766195014527,-25.0
4810,-8,-5,-1,-1,12,16,23,12,True,23,-8,6.0,11.186726828829652,12.062338081814818,48.0
4811,1,-11,2,-1,-10,3,13,6,True,13,-11,0.375,7.927123419897391,7.424621202458749,3.0
4812,37,21,-8,-5,-6,-1,-8,-45,True,37,-45,-1.875,23.895232638690562,22.43044805615795,-15.0
4813,-12,1,0,0,-2,-1,-4,-24,True,1,-24,-5.25,8.631338250816034,9.630680142129112,-42.0
4814,-6,-7,3,2,-2,-1,-4,17,True,17,-7,0.25,7.629828681843762,7.14142842854285,2.0
4815,-6,5,-3,-1,-4,-19,-9,-13,True,5,-19,-6.25,7.421012637870156,9.340770846134703,-50.0
4816,-5,-3,-1,1,5,3,-6,-5,True,5,-6,-1.375,4.0686080455816125,4.046603514059662,-11.0
4817,-9,1,0,-1,-3,6,2,11,True,11,-9,0.875,5.938674695827103,5.623610939600996,7.0
4818,9,2,-4,-4,-1,-6,-3,-11,True,9,-11,-2.25,5.897941529526576,5.958187643906492,-18.0
4819,3,-10,-2,-1,2,2,-4,6,True,6,-10,-0.5,4.956957592256421,4.663689526544408,-4.0
4820,-8,2,11,5,-1,-1,-6,9,True,11,-8,1.375,6.738747234146291,6.45174395028197,11.0
5193,-2,-15,-4,-3,-8,-6,-5,-16,True,-2,-16,-7.375,5.343554194407635,8.90926484060273,-59.0
5194,-16,2,2,0,-5,-3,0,-12,True,2,-16,-4.0,6.697547525560595,7.433034373659253,-32.0
5195,-2,-6,-6,-3,1,-4,-2,-8,True,1,-8,-3.75,2.866057521105554,4.6097722286464435,-30.0
5196,12,3,0,-1,1,1,4,16,True,16,-1,4.5,6.164414002968976,7.314369419163897,36.0
5197,-12,-4,-3,-5,-8,-7,-5,8,True,8,-12,-4.5,5.781744669956589,7.035623639735144,-36.0
5198,-12,-8,-1,0,-2,-1,-2,-14,True,0,-14,-5.0,5.529143565818179,7.19374728496908,-40.0
5199,13,-6,-4,-1,1,-1,2,9,True,13,-6,1.625,6.41287766919033,6.214901447328026,13.0
5200,-11,-18,-9,0,-2,0,2,7,True,7,-18,-3.875,8.131727983645296,8.536685539481937,-31.0
5201,-5,3,3,3,19,11,0,-4,True,19,-5,3.75,7.905694150420948,8.2915619758885,30.0
5202,2,5,12,1,-5,0,5,2,True,12,-5,2.75,4.891683905218266,5.338539126015656,22.0
5203,0,0,-10,-3,-6,-6,-1,4,True,4,-10,-2.75,4.432026302139591,4.9749371855331,-22.0
5204,-6,11,1,2,1,2,-2,8,True,11,-6,2.125,5.330170192940773,5.4198708471697,17.0
5205,0,-9,-9,-2,-3,-1,2,15,True,15,-9,-0.875,7.548651724456683,7.115124735378854,-7.0
5206,15,8,-1,-3,-5,-4,-1,-3,True,15,-5,0.75,7.025463889106744,6.614378277661476,6.0
5207,12,1,-2,-1,-3,-3,-3,-3,True,12,-3,-0.25,5.1478150704935,4.8218253804964775,-2.0
5208,-19,-4,-11,-1,1,-1,-2,-5,True,1,-19,-5.25,6.649382355849731,8.139410298049853,-42.0
5209,4,1,-4,-3,-2,-1,0,-2,True,4,-4,-0.875,2.5319388392523003,2.5248762345905194,-7.0
5210,-12,-10,-12,-5,-5,-4,-1,3,True,3,-12,-5.75,5.338539126015656,7.615773105863909,-46.0
5211,0,17,13,2,-3,-1,4,6,True,17,-3,4.75,7.00510018282598,8.093207028119323,38.0
5212,2,5,2,-2,-2,-2,-1,2,True,5,-2,0.5,2.6186146828319083,2.5,4.0
5213,-10,-14,-1,-10,-35,-13,-5,-9,True,-1,-35,-12.125,10.148011768673845,15.398863594434493,-97.0
5214,5,1,6,1,-1,-2,0,-4,True,6,-4,0.75,3.3700360320244136,3.24037034920393,6.0
5215,17,-12,-6,-12,-2,-1,-1,-1,True,17,-12,-2.25,9.09866552224634,8.803408430829505,-18.0
5216,8,12,18,0,4,2,-1,-4,True,18,-4,4.875,7.3569694847810805,8.4335638967165,39.0
5217,-23,-27,-13,-1,0,0,1,3,True,3,-27,-7.5,11.88035593502388,13.407087677791923,-60.0
5218,-5,4,4,2,8,1,-2,4,True,8,-5,2.0,4.035556254807296,4.272001872658765,16.0
5219,5,4,6,4,2,0,1,0,True,6,0,2.75,2.3145502494313788,3.5,22.0
5220,-25,-3,3,4,5,-1,-2,-15,True,5,-25,-4.25,10.484682705192915,10.688779163215974,-34.0
5221,-26,-11,-5,1,-5,-7,-6,-2,True,1,-26,-7.625,8.210402808980463,10.822430410956681,-61.0
5222,-7,7,-9,1,-16,0,0,5,True,7,-16,-2.375,7.707834604200734,7.591113225344488,-19.0
5223,11,9,9,3,16,5,1,-5,True,16,-5,6.125,6.5342504215425175,8.65303414993839,49.0
5224,-18,-2,-5,-9,-3,-3,-4,-3,True,-2,-18,-5.875,5.356904756613521,7.721722605740251,-47.0
5225,-1,0,-5,-1,-6,-2,-1,-3,True,0,-6,-2.375,2.1339098923270936,3.1024184114977142,-19.0
5226,10,2,-7,1,-1,-1,2,7,True,10,-7,1.625,5.180664601601392,5.111262075065218,13.0
5227,6,5,0,0,4,1,-1,4,True,6,-1,2.375,2.669269563007828,3.4460121880225554,19.0
5228,2,-15,-3,-3,-3,-1,-1,-1,True,2,-15,-3.125,5.083235752381126,5.689903338370521,-25.0
5229,3,11,2,-2,2,4,4,2,True,11,-2,3.25,3.6547425158474374,4.716990566028302,26.0
5230,6,20,6,4,-6,-2,2,7,True,20,-6,4.625,7.652030542840993,8.522030274529655,37.0
5231,23,20,0,-1,6,0,0,-5,True,23,-5,5.375,10.418904521521032,11.129914644776033,43.0
5232,4,-8,-4,-4,-5,-8,-2,-4,True,4,-8,-3.875,3.7961446607992015,5.25594901040716,-31.0
5233,-33,-26,-6,3,14,7,2,-4,True,14,-33,-5.375,16.229932664238454,16.105123408406406,-43.0
5234,24,-1,5,21,32,8,-1,2,True,32,-1,11.25,12.668859459319927,16.34013463836819,90.0
5235,-14,-10,-3,-11,-6,-7,-1,-13,True,-1,-14,-8.125,4.6732521560777895,9.226321043622967,-65.0
5236,1,-6,2,-10,-12,-4,-2,-16,True,2,-16,-5.875,6.379375249303694,8.374067112222113,-47.0
5237,-16,-1,0,-2,-18,1,-3,-2,True,1,-18,-5.125,7.453426824526516,8.65303414993839,-41.0
5238,-3,-10,-6,-8,3,-1,-2,-2,True,3,-10,-3.625,4.172614801981401,5.326818938165629,-29.0
5239,8,11,1,-6,-16,-6,5,1,True,11,-16,-0.25,8.77903346453518,8.215838362577491,-2.0
5240,19,-6,-5,-4,-2,-4,4,0,True,19,-6,0.25,8.224527776283399,7.697402159170326,2.0
5241,44,30,11,8,5,3,-2,-12,True,44,-12,10.875,17.955798904134404,20.00937280376374,87.0
5242,26,1,-8,-11,-11,-7,-7,-4,True,26,-11,-2.625,12.199970725960194,11.71003842863037,-21.0
5243,-16,-13,3,18,84,24,-15,-2,True,84,-16,10.375,33.29065720503062,32.82339104967675,83.0
5244,-29,-12,-1,-3,-3,-1,-2,-2,True,-1,-29,-6.625,9.723866074179108,11.2527774349269,-53.0
5245,7,7,-3,-3,1,5,-1,7,True,7,-3,2.5,4.503966505838413,4.898979485566356,20.0
5246,-12,-4,-3,-1,-28,-14,-4,6,True,6,-28,-7.5,10.36477551269546,12.257650672131263,-60.0
5247,-2,-3,3,11,-20,-19,-2,-3,True,11,-20,-4.375,10.44629120788809,10.706306552681928,-35.0
5248,8,7,3,-3,-13,5,9,28,True,28,-13,5.5,11.6373782025236,12.196310917650468,44.0
5249,2,-14,-11,-9,-15,-5,2,5,True,5,-15,-5.625,7.8182478855559445,9.226321043622967,-45.0
5250,7,14,6,6,18,12,-2,4,True,18,-2,8.125,6.289163014946538,10.031201323869439,65.0
5251,-6,0,0,-1,-1,0,2,5,True,5,-6,-0.125,3.090885217631258,2.8939592256975564,-1.0
5252,0,5,-1,-5,-19,-14,-4,0,True,5,-19,-4.75,7.959720023791217,8.831760866327848,-38.0
5253,-10,1,-8,-3,-12,-5,3,-10,True,3,-12,-5.5,5.477225575051661,7.516648189186454,-44.0
5254,-9,0,5,1,1,2,4,4,True,5,-9,1.0,4.4077853201547175,4.242640687119285,8.0
5255,0,-8,1,1,3,9,4,6,True,9,-8,2.0,5.0142653642240695,5.0990195135927845,16.0
5256,-12,-2,-3,-3,10,8,-5,-10,True,10,-12,-2.125,7.735585673643962,7.541551564499178,-17.0
5257,-4,1,4,-3,-25,-17,-2,3,True,4,-25,-5.375,10.266972011538469,11.00568035152757,-43.0
5258,-12,-4,-5,2,13,14,3,-3,True,14,-12,1.0,8.976158898517147,8.455767262643882,8.0
5259,-9,-7,-5,-7,-6,-3,-4,-3,True,-3,-9,-5.5,2.138089935299395,5.852349955359813,-44.0
5260,20,-6,-5,-2,5,3,2,-5,True,20,-6,1.5,8.535639569308374,8.12403840463596,12.0
5261,2,12,2,-1,0,4,5,7,True,12,-1,3.875,4.189698250300543,5.5113519212621505,31.0
5262,1,7,10,3,-6,-5,-3,-20,True,10,-20,-1.625,9.31875988070761,8.8670739254841,-13.0
5263,5,11,3,-4,-2,-5,-1,-12,True,11,-12,-0.625,6.988510979764267,6.566962768281849,-5.0
5264,10,0,-7,-2,3,-1,-2,1,True,10,-7,0.25,4.891683905218266,4.58257569495584,2.0
5265,14,-3,-2,1,4,3,4,4,True,14,-3,3.125,5.19443383412888,5.777110004145672,25.0
5266,-3,-17,-2,3,3,-1,-1,0,True,3,-17,-2.25,6.341473465550866,6.34428877022476,-18.0
5267,-21,-8,15,4,-3,-4,-6,-12,True,15,-21,-4.375,10.676241981949588,10.902981243678262,-35.0
5480,3,5,2,1,-2,-3,-1,-2,True,5,-3,0.375,2.8252686345094435,2.669269563007828,3.0
5481,-5,6,3,0,-6,0,-2,0,True,6,-6,-0.5,3.9279220242478625,3.7080992435478315,-4.0
5482,4,-1,1,0,0,0,0,-2,True,4,-2,0.25,1.752549163769328,1.6583123951777,2.0
5483,0,-10,-6,-5,-4,-2,1,3,True,3,-10,-2.875,4.223657859520076,4.886205071423016,-23.0
5484,2,-5,2,0,-3,0,1,0,True,2,-5,-0.375,2.445841952609133,2.318404623873926,-3.0
5485,-7,-2,-5,-2,-5,-3,-3,-1,True,-1,-7,-3.5,2.0,3.968626966596886,-28.0
5486,4,34,16,8,11,6,-2,-1,True,34,-2,9.5,11.538754575033526,14.378803844548406,76.0
5487,-3,18,6,-1,-1,-2,1,7,True,18,-3,3.125,7.039429765866794,7.2886898685566255,25.0
5488,3,-21,-12,-5,-6,-6,-3,-16,True,3,-21,-8.25,7.667184247539268,10.931605554537724,-66.0
5489,-7,9,8,-4,2,0,-1,1,True,9,-7,1.0,5.451081150953975,5.196152422706632,8.0
5490,9,-9,-1,5,-1,1,0,5,True,9,-9,1.125,5.409977554746151,5.18411033833193,9.0
5491,-1,-5,-3,5,9,1,1,-2,True,9,-5,0.625,4.533604683755678,4.286607049870562,5.0
5492,-3,-5,0,16,19,7,0,-1,True,19,-5,4.125,8.9831190892378,9.360822613424528,33.0
5493,-2,1,-2,-2,-1,-2,-1,-1,True,1,-2,-1.25,1.0350983390135313,1.5811388300841898,-10.0
5494,-1,-1,-3,-9,-22,-8,0,12,True,12,-22,-4.0,9.680613912055666,9.899494936611665,-32.0
5495,-14,-8,-4,-6,-10,-1,0,-1,True,0,-14,-5.5,4.956957592256421,7.19374728496908,-44.0
5496,-12,-17,-7,-2,0,0,-2,-6,True,0,-17,-5.75,6.112048990080401,8.108637370113428,-46.0
5497,-1,-1,1,-3,0,0,-1,5,True,5,-3,0.0,2.3299294900428698,2.179449471770337,0.0
5498,-6,-1,1,-11,-12,-7,5,1,True,5,-12,-3.75,6.158617655657106,6.87386354243376,-30.0
5499,9,13,4,10,9,1,-3,-3,True,13,-3,5.0,6.164414002968976,7.632168761236874,40.0
5500,7,-6,-3,-2,-2,-1,-4,-9,True,7,-9,-2.5,4.6291004988627575,5.0,-20.0
5501,-10,5,2,-7,-23,2,1,-13,True,5,-23,-5.375,9.635314510397972,10.494045930907678,-43.0
5502,-2,-15,-9,-11,-21,-11,-1,-12,True,-1,-21,-10.25,6.519202405202649,11.926860441876563,-82.0
5503,-2,2,-5,-12,-55,-9,-2,-3,True,2,-55,-10.75,18.406132518422066,20.29778313018444,-86.0
5504,-7,0,-4,4,8,0,-2,-5,True,8,-7,-0.75,4.920801328471382,4.663689526544408,-6.0
5505,-20,-1,0,1,-1,0,-2,-6,True,1,-20,-3.625,6.94750726108704,7.441438033068608,-29.0
5506,-4,-12,5,10,13,6,0,4,True,13,-12,2.75,7.977647343851265,7.952986860293433,22.0
5507,19,8,4,-1,12,-2,0,3,True,19,-2,5.375,7.249384210301687,8.65303414993839,43.0
5508,9,3,1,-7,2,-1,0,3,True,9,-7,1.25,4.496029994816062,4.387482193696061,10.0
5509,0,-4,1,7,46,7,1,4,True,46,-4,7.75,15.890248582070704,16.76305461424021,62.0
5510,4,4,1,-13,-4,1,0,0,True,4,-13,-0.875,5.514591035218685,5.232112384114087,-7.0
5511,-15,-4,-4,-13,-15,-1,-1,-1,True,-1,-15,-6.75,6.4309519401985,9.041570660012562,-54.0
5512,-1,5,-1,0,12,0,0,-1,True,12,-1,1.75,4.590362575159894,4.636809247747852,14.0
5513,-10,-6,-4,-2,4,1,0,1,True,4,-10,-2.0,4.503966505838413,4.663689526544408,-16.0
5514,3,10,-7,7,-2,1,0,2,True,10,-7,1.75,5.230405611149374,5.196152422706632,14.0
5515,16,12,9,2,-4,-5,0,3,True,16,-5,4.125,7.548651724456683,8.177713616898062,33.0
5516,-19,0,-9,-4,7,-3,-3,-4,True,7,-19,-4.375,7.44383733605956,8.223442101699263,-35.0
5517,-2,1,-4,-2,11,2,-1,-4,True,11,-4,0.125,4.882549100038392,4.568916720624267,1.0
5518,13,19,9,-2,0,-3,-2,0,True,19,-3,4.25,8.310922245541018,8.860022573334675,34.0
5519,2,6,2,-4,-16,-1,-1,0,True,6,-16,-1.5,6.546536707079771,6.304760106459246,-12.0
5520,8,11,-6,-6,10,-3,-2,0,True,11,-6,1.5,7.091242083423347,6.800735254367722,12.0
5521,0,-9,-2,7,-1,2,2,2,True,7,-9,0.125,4.580626906564522,4.286607049870562,1.0
5522,14,-16,-14,-1,-8,-1,-4,-4,True,14,-16,-4.25,9.269766525030251,9.656603957913983,-34.0
5523,16,12,-8,-3,-5,-2,-5,0,True,16,-8,0.625,8.650970218090322,8.116341540373963,5.0
5524,-13,-5,5,1,0,0,1,-3,True,5,-13,-1.75,5.4182232195751086,5.361902647381804,-14.0
5525,44,10,1,3,6,1,-2,3,True,44,-2,8.25,14.88767467211912,16.186414056238647,66.0
5526,-19,-11,-19,4,-10,-1,0,-1,True,4,-19,-7.125,8.903249807955358,10.960155108391486,-57.0
5527,-22,-20,1,-1,-15,-3,-1,-6,True,1,-22,-8.375,9.226321043622967,12.026013470805694,-67.0
5528,-7,3,6,7,-8,4,1,-1,True,7,-8,0.625,5.629958132298016,5.303300858899107,5.0
5529,-6,-6,28,10,2,0,1,-1,True,28,-6,3.5,11.109841197270617,10.965856099730654,28.0
5530,-2,2,-3,-3,1,-2,-2,0,True,2,-3,-1.125,1.8850918886280925,2.091650066335189,-9.0
5531,-22,0,3,-1,-3,0,0,-2,True,3,-22,-3.125,7.827378689117905,7.960841664045329,-25.0
5532,-1,-1,1,3,6,1,-1,1,True,6,-1,1.125,2.416461403433896,2.5248762345905194,9.0
5533,-13,-11,-13,-5,3,1,-1,-1,True,3,-13,-5.0,6.502746672423452,7.874007874011811,-40.0
5534,-14,0,6,2,3,-2,-2,2,True,6,-14,-0.625,6.022280061808579,5.667892024377317,-5.0
5535,20,8,-5,-1,0,1,-2,-8,True,20,-8,1.625,8.765802057671944,8.359126748650244,13.0
5536,5,-8,0,-4,0,-2,0,-6,True,5,-8,-1.875,4.086126352846736,4.257346591481601,-15.0
5537,-18,-33,-10,0,7,2,0,2,True,7,-33,-6.25,13.403091327856314,14.0089257261219,-50.0
5538,-5,3,22,0,1,1,0,-4,True,22,-5,2.25,8.413424646700907,8.18535277187245,18.0
5539,19,28,-15,-10,-4,-5,-4,-3,True,28,-15,0.75,14.791406771693971,13.856406460551018,6.0
5540,-6,-23,-12,-5,-3,2,0,6,True,6,-23,-5.125,9.046506823867746,9.89317946870469,-41.0
5541,-18,11,14,9,3,4,3,6,True,14,-18,4.0,9.739463170891035,9.9498743710662,32.0
5542,30,1,-5,-1,2,-1,1,5,True,30,-5,4.0,10.889050857234002,10.943034314119645,32.0
5543,4,-2,-1,-10,-3,-8,-1,0,True,4,-10,-2.625,4.470139019889969,4.937104414532874,-21.0
5544,-1,-8,-4,-1,-2,0,-1,-2,True,0,-8,-2.375,2.5599944196367748,3.3726843908080104,-19.0
5545,-13,3,1,-4,-9,-3,-1,2,True,3,-13,-3.0,5.5805785670356025,6.020797289396148,-24.0
5546,-10,-15,-3,-7,2,-6,-1,-1,True,2,-15,-5.125,5.540435774506241,7.2886898685566255,-41.0
5547,29,25,3,-2,-5,-3,-3,-1,True,29,-5,5.375,13.585049555617065,13.797644726546629,43.0
5548,-23,-18,6,-1,4,4,3,5,True,6,-23,-2.5,11.376667852608312,10.931605554537724,-20.0
5549,-14,-12,-1,-1,-28,6,1,-2,True,6,-28,-6.375,10.966670285134734,12.077872329181163,-51.0
5550,21,5,-6,-11,-19,0,-7,-8,True,21,-19,-3.125,12.064558484609845,11.71003842863037,-25.0
5551,-20,-15,-12,-8,-9,-6,-4,-12,True,-4,-20,-10.75,5.1478150704935,11.779218989389747,-86.0
5552,-9,-24,-3,4,-12,3,-2,-1,True,4,-24,-5.5,9.242757782641036,10.246950765959598,-44.0
5553,-12,11,-9,-4,19,-1,0,4,True,19,-12,1.0,10.22601723895616,9.617692030835672,8.0
5554,46,7,-10,6,10,-5,-4,-7,True,46,-10,5.375,17.967729008260495,17.645821035021296,43.0
5555,-4,5,7,3,-12,-4,-1,9,True,9,-12,0.375,6.968039281503185,6.528782428600298,3.0
5556,-17,-4,5,-2,8,-1,1,9,True,9,-17,-0.125,8.288330867637256,7.754031209635412,-1.0
5557,0,3,0,-16,-38,-11,-1,6,True,6,-38,-7.125,14.446329242109519,15.276616117452189,-57.0
5558,26,30,0,-6,-18,-3,-14,3,True,30,-18,2.25,17.35964120761552,16.393596310755,18.0
5559,21,6,2,-1,16,7,2,6,True,21,-1,7.375,7.4821215478728265,10.167349703831377,59.0
5560,-26,-4,5,6,9,1,10,-4,True,10,-26,-0.375,11.648881000827012,10.902981243678262,-3.0
5561,-13,-5,14,16,0,-2,-3,-8,True,16,-13,-0.125,10.162079371017388,9.506576670915772,-1.0
5562,1,-3,9,0,-1,5,3,0,True,9,-3,1.75,3.8078865529319543,3.968626966596886,14.0
5563,37,24,-2,4,10,1,6,2,True,37,-2,10.25,13.44565782272159,16.224980739587952,82.0
5564,0,3,-3,-7,9,-4,-5,-14,True,9,-14,-2.625,6.864765108872991,6.937218462755804,-21.0
5565,-51,-19,-7,5,13,3,-4,1,True,13,-51,-7.375,19.985262427241587,20.096641510461392,-59.0
5566,0,2,-11,-6,-6,-6,-3,-16,True,2,-16,-5.75,5.775564289066727,7.88986691902975,-46.0
5567,1,-23,-3,-3,1,5,7,10,True,10,-23,-0.625,10.14097064951308,9.506576670915772,-5.0
5568,-7,-13,-4,0,16,-2,-5,-6,True,16,-13,-2.625,8.450486038430824,8.329165624478842,-21.0
5569,-15,11,-6,0,2,-2,-1,-12,True,11,-15,-2.875,8.184261900571293,8.177713616898062,-23.0
5570,6,-6,-9,-7,0,-1,0,1,True,6,-9,-2.0,4.956957592256421,5.049752469181039,-16.0
5571,-12,-16,3,-3,-2,-5,-5,-3,True,3,-16,-5.375,5.974648824109127,7.754031209635412,-43.0
5572,18,10,4,-2,-14,1,0,1,True,18,-14,2.25,9.269766525030251,8.958236433584458,18.0
5573,17,7,4,-5,13,-11,1,0,True,17,-11,3.25,9.145646895810987,9.151502608861563,26.0
5574,-16,-19,-5,7,38,6,0,5,True,38,-19,2.0,17.582458791160498,16.56804152578089,16.0
5575,7,-2,-1,-4,-8,1,-2,-17,True,7,-17,-3.25,7.00510018282598,7.314369419163897,-26.0
5576,14,9,-2,-4,4,-7,-2,-4,True,14,-7,1.0,7.309485031694875,6.910137480542627,8.0
5577,-29,-38,-6,-6,-10,-9,-2,8,True,8,-38,-11.5,14.870872776769263,18.048545647780045,-92.0
5578,5,-13,-1,4,4,-1,-3,8,True,8,-13,0.375,6.545172703167252,6.1339220731926485,3.0
5579,6,-36,17,11,-5,2,2,6,True,17,-36,0.375,16.0796010966868,15.045763523331077,3.0
5580,-4,18,-10,-2,-2,2,1,4,True,18,-10,0.875,8.131727983645296,7.656696415556778,7.0
5581,18,-1,-6,-4,-6,-11,-7,4,True,18,-11,-1.625,9.085899593797603,8.65303414993839,-13.0
5582,-9,-2,7,3,-1,3,8,2,True,8,-9,1.375,5.423164600647327,5.25594901040716,11.0
5583,24,27,1,3,3,14,16,-7,True,27,-7,10.125,11.981384370287577,15.103807466993215,81.0
5584,6,11,0,2,-4,11,14,-15,True,14,-15,3.125,9.568363048535074,9.48024261292927,25.0
5585,48,16,3,2,-1,2,28,24,True,48,-1,15.25,17.227469758664917,22.18670773233379,122.0
5586,8,-2,1,-1,-2,15,8,11,True,15,-2,4.75,6.584614100852293,7.7781745930520225,38.0
5587,-1,1,-1,-4,-1,1,-11,9,True,9,-11,-0.875,5.566160513059505,5.2796780204857185,-7.0
5588,3,12,0,2,0,-4,-3,-8,True,12,-8,0.25,5.922113522335465,5.545268253204709,2.0
5589,2,0,-9,-8,-5,-6,-2,-3,True,2,-9,-3.875,3.833592123769634,5.2796780204857185,-31.0
5590,-15,-9,-5,-3,-4,-9,-13,-16,True,-3,-16,-9.25,5.035587637718447,10.380269746013347,-74.0
5591,-5,10,-6,-1,-1,-4,8,16,True,16,-6,2.125,8.131727983645296,7.897784499465657,17.0
5592,-35,-16,-3,0,-3,1,-2,-13,True,1,-35,-8.875,12.205824136744837,14.461154863979571,-71.0
5593,18,-5,-2,-1,-1,-3,-5,8,True,18,-5,1.125,7.954109450017465,7.5249584716462055,9.0
5960,-4,10,3,-3,-4,-3,-3,-6,True,10,-6,-1.25,5.230405611149374,5.049752469181039,-10.0
5961,6,-1,0,-5,3,0,1,3,True,6,-5,0.875,3.2705394924123103,3.181980515339464,7.0
5962,7,0,-3,0,-3,0,-1,4,True,7,-3,0.5,3.4226138716316967,3.24037034920393,4.0
5963,-16,-6,3,0,-5,-3,0,0,True,3,-16,-3.375,5.902481318419036,6.471089552772392,-27.0
5964,-3,-9,10,4,2,-1,-4,-10,True,10,-10,-1.375,6.674846172652328,6.393355926272211,-11.0
5965,7,38,3,5,23,0,-1,6,True,38,-1,10.125,13.484779779969923,16.174826119621812,81.0
5966,-5,3,-9,0,0,-3,0,5,True,5,-9,-1.125,4.454131308603925,4.315669125408017,-9.0
5967,9,30,3,-2,-2,0,-1,-4,True,30,-4,4.125,11.205069005970977,11.26388032606881,33.0
5968,-24,-25,-1,3,15,6,-2,-10,True,15,-25,-4.75,14.119388898147923,14.035668847618199,-38.0
5969,-20,-16,-2,-3,-13,0,3,-2,True,3,-20,-6.625,8.450486038430824,10.313825672368134,-53.0
5970,5,-9,2,5,0,-2,1,11,True,11,-9,1.625,5.853875395228116,5.7118298293979315,13.0
5971,1,-28,-3,0,-5,0,0,0,True,1,-28,-4.375,9.75320460156558,10.11805317242403,-35.0
5972,-29,3,-8,-1,-3,0,-2,0,True,3,-29,-5.0,10.198039027185569,10.770329614269007,-40.0
5973,1,-1,-2,13,5,-2,-2,-9,True,13,-9,0.375,6.41287766919033,6.010407640085654,3.0
5974,20,18,3,-1,-2,0,-1,2,True,20,-2,4.875,8.88718981777383,9.63716763369819,39.0
5975,-2,20,3,0,-5,-4,-5,-7,True,20,-7,0.0,8.68496237346895,8.12403840463596,0.0
5976,-15,2,4,1,1,1,-4,-6,True,4,-15,-2.0,6.187545093630776,6.123724356957945,-16.0
5977,6,-13,-4,-4,7,1,-2,0,True,7,-13,-1.125,6.334429729659964,6.031169040907409,-9.0
5978,19,4,-1,-1,-3,-4,-1,2,True,19,-4,1.875,7.376361859732363,7.1501748230375455,15.0
5979,-7,-11,-3,-5,12,-7,4,13,True,13,-11,-0.5,9.102589898327995,8.52936105461599,-4.0
5980,3,22,6,-1,0,1,2,0,True,22,-1,4.125,7.548651724456683,8.177713616898062,33.0
5981,-3,5,1,10,16,1,0,8,True,16,-3,4.75,6.273527146441853,7.54983443527075,38.0
5982,-8,-17,-2,6,1,-1,2,4,True,6,-17,-1.875,7.434235478033846,7.202430145443967,-15.0
5983,-3,-9,2,-7,-16,-2,-3,-11,True,2,-16,-6.125,5.767829500154901,8.162413858657255,-49.0
5984,-3,0,-1,-5,2,0,-5,2,True,2,-5,-1.25,2.8157719063467175,2.9154759474226504,-10.0
5985,-4,7,6,2,4,-2,-3,-15,True,7,-15,-0.625,7.130167299179291,6.698880503487131,-5.0
5986,-7,6,-16,-7,-13,1,-1,29,True,29,-16,-1.0,14.11179850844169,13.238202294873727,-8.0
5987,6,-22,-12,-6,-15,-2,-3,-18,True,6,-22,-9.0,9.365590516047865,12.55985668708047,-72.0
5988,-12,-6,7,2,-17,-1,1,4,True,7,-17,-2.75,8.276472678623424,8.215838362577491,-22.0
5989,10,-1,-6,-7,1,4,3,24,True,24,-7,3.5,9.92831448793946,9.924716620639604,28.0
5990,-5,8,3,0,-1,10,-5,-6,True,10,-6,0.5,6.07100838882165,5.70087712549569,4.0
5991,2,14,0,-9,-25,-6,8,12,True,14,-25,-0.5,12.806248474865697,11.989578808281799,-4.0
5992,1,2,9,-1,7,-14,-18,-16,True,9,-18,-3.75,10.68710838881527,10.677078252031311,-30.0
5993,-6,-23,0,6,1,-3,0,3,True,6,-23,-2.75,8.940278039779939,8.803408430829505,-22.0
5994,-5,3,0,-4,-15,6,12,6,True,12,-15,0.375,8.365533028871672,7.834219807996199,3.0
5995,-10,-1,0,5,-1,-4,-3,-29,True,5,-29,-5.375,10.432606851323676,11.141139977578597,-43.0
5996,43,-1,0,0,5,0,0,-2,True,43,-2,5.625,15.240336516719607,15.325632123994103,45.0
5997,-5,-18,-6,-1,12,1,-3,-6,True,12,-18,-3.25,8.379396500601086,8.48528137423857,-26.0
5998,-4,0,-5,-8,2,-1,-3,12,True,12,-8,-0.875,6.057757718118856,5.733672470589857,-7.0
5999,6,-14,-4,12,-17,-38,-20,-25,True,12,-38,-12.5,16.47508942095828,19.84313483298443,-100.0
6000,-3,-3,3,32,31,19,16,3,True,32,-3,12.25,14.33028760552777,18.159019797334878,98.0
6001,12,8,-5,-11,6,11,13,-1,True,13,-11,4.125,8.822657519947473,9.226321043622967,33.0
6002,-7,-21,-8,-8,-12,-4,2,-7,True,2,-21,-8.125,6.577830732305077,10.191908555319754,-65.0
6003,-22,-14,-3,-2,1,6,-3,-4,True,6,-22,-5.125,8.822657519947473,9.714679613862724,-41.0
6004,-5,4,-1,-12,21,0,3,-8,True,21,-12,0.25,9.996427933445597,9.354143466934854,2.0
6005,-28,-7,-13,-13,4,0,-3,28,True,28,-28,-4.0,16.265651802846037,15.732132722552274,-32.0
6006,4,16,1,-2,-5,-1,-13,-35,True,16,-35,-4.375,14.851046139197448,14.564511663629508,-35.0
6007,32,20,5,17,40,-4,2,-6,True,40,-6,13.25,16.858656106412685,20.59732992404598,106.0
6008,12,14,0,-6,-27,-13,4,3,True,14,-27,-1.625,13.51123870814854,12.742644937374658,-13.0
6009,25,25,6,0,-21,12,4,-15,True,25,-21,4.5,16.690459207925603,16.24807680927192,36.0
6010,-1,5,4,14,-14,-15,-5,4,True,14,-15,-1.0,9.94269293788875,9.354143466934854,-8.0
6011,-7,7,7,8,41,1,1,2,True,41,-7,7.5,14.382529084175106,15.402921800749363,60.0
6012,-16,-12,-1,-8,-7,-1,-7,3,True,3,-16,-6.125,6.243568119044018,8.463155439905378,-49.0
6013,8,-8,-6,-10,-16,-2,-15,26,True,26,-16,-2.875,13.932874793092774,13.346347815039138,-23.0
6014,-14,-21,-2,-1,34,19,6,14,True,34,-21,4.375,17.880056727298953,17.28800161962047,35.0
6015,-3,1,11,-1,-12,9,5,14,True,14,-12,3.0,8.502100580780862,8.5,24.0
6016,2,11,2,0,-1,1,-5,-19,True,11,-19,-1.125,8.50944853005847,8.038967595406763,-9.0
6017,-1,-2,-2,-8,-17,13,-15,-7,True,13,-17,-4.875,9.372261504796253,10.031201323869439,-39.0
6018,-11,-4,-3,-7,-17,13,10,2,True,13,-17,-2.125,10.148011768673845,9.72753822917186,-17.0
6019,19,-4,-3,-3,-4,-5,-13,4,True,19,-13,-1.125,9.341726668173134,8.810505093353047,-9.0
6020,21,4,-1,-8,-17,-8,13,22,True,22,-17,3.25,14.360163150684803,13.820274961085254,26.0
6021,-52,-51,-11,1,-8,-2,10,-22,True,10,-52,-16.875,23.301977230637377,27.565830297671063,-135.0
6022,45,24,0,2,7,-2,14,35,True,45,-2,15.625,17.426888092009673,22.580411865154275,125.0
6023,-59,-10,-1,3,5,-5,9,-2,True,9,-59,-7.5,21.633307652783937,21.581241854907237,-60.0
6024,-21,-3,3,3,7,9,-7,-54,True,9,-54,-7.875,20.931435688934478,21.10390959040528,-63.0
6025,9,14,3,-6,-14,21,24,19,True,24,-14,8.75,13.540943204117756,15.394804318340652,70.0
6026,51,11,-2,-4,-7,-7,-14,2,True,51,-14,3.75,20.450288157243303,19.493588689617926,30.0
6027,19,47,2,2,2,-5,-6,-8,True,47,-8,6.625,18.345396464196988,18.394972139147153,53.0
6028,22,-19,-5,-5,-5,3,6,15,True,22,-19,1.5,12.939419284827716,12.196310917650468,12.0
6029,5,-7,-5,-3,-1,-7,-33,-17,True,5,-33,-8.5,11.698595764327566,13.856406460551018,-68.0
6030,32,20,4,0,-5,-11,26,28,True,32,-11,11.75,16.654042838216277,19.512816301087856,94.0
6031,10,34,-3,-2,-7,-11,4,11,True,34,-11,4.5,14.212670403551895,14.035668847618199,36.0
6032,-13,-7,3,0,5,9,-2,-23,True,9,-23,-3.5,10.474458731327633,10.404326023342406,-28.0
6033,-3,3,5,-1,2,-9,-8,-10,True,5,-10,-2.625,5.829420456369815,6.051859218455102,-21.0
6034,4,3,1,0,2,-5,-7,-4,True,4,-7,-0.75,4.06201920231798,3.872983346207417,-6.0
6035,11,29,-5,0,2,-1,11,-36,True,29,-36,1.375,18.492759200755923,17.352953639078276,11.0
6036,39,-8,-3,-2,-2,-12,-10,-4,True,39,-12,-0.25,16.307316499920255,15.256146302392358,-2.0
6037,-65,-28,-1,3,0,-2,-5,4,True,4,-65,-11.75,23.783247405324133,25.15949125081825,-94.0
6403,0,-1,-5,-2,-2,0,-5,-9,True,0,-9,-3.0,3.116774889895918,4.183300132670378,-24.0
6404,-3,2,0,-3,-3,0,-1,0,True,2,-3,-1.0,1.8516401995451028,2.0,-8.0
6405,3,-8,-1,0,14,6,-3,6,True,14,-8,2.125,6.706872807586473,6.623820649745885,17.0
6406,1,2,5,3,7,16,9,1,True,16,1,5.5,5.1269595556932455,7.297259759663212,44.0
6407,-1,-6,0,-3,-8,-5,-1,-4,True,0,-8,-3.5,2.7774602993176543,4.358898943540674,-28.0
6408,3,-2,-6,-5,-1,-6,-4,-6,True,3,-6,-3.375,3.2043497223082786,4.513867521316947,-27.0
6409,1,-4,-6,-2,-2,-4,-4,-2,True,1,-6,-2.875,2.100170061141308,3.48209706929603,-23.0
6410,-7,7,0,0,-1,-3,-3,1,True,7,-7,-0.75,4.026696625558686,3.840572873934304,-6.0
6411,-2,-10,-8,-4,-5,2,7,-4,True,7,-10,-3.0,5.42481072744215,5.894913061275798,-24.0
6412,0,-2,-2,-1,1,-5,7,1,True,7,-5,-0.125,3.48209706929603,3.2596012026013246,-1.0
6413,7,7,6,3,-1,3,5,15,True,15,-1,5.625,4.627171304989074,7.097534783289195,45.0
6414,1,-1,-6,-4,-5,-5,-1,3,True,3,-6,-2.25,3.24037034920393,3.774917217635375,-18.0
6415,-4,5,10,6,3,11,6,0,True,11,-4,4.625,4.955156044825574,6.547900426854397,37.0
6416,-1,10,6,-1,-10,-11,-6,-2,True,10,-11,-1.875,7.278883352351709,7.0622234459127675,-15.0
6417,-4,-4,-5,-6,-2,1,-3,-9,True,1,-9,-4.0,2.9277002188455996,4.847679857416329,-32.0
6418,1,3,1,2,8,2,1,-2,True,8,-2,2.0,2.8284271247461903,3.3166247903554,16.0
6419,5,0,-3,-2,-8,-8,-3,-7,True,5,-8,-3.25,4.464142854857069,5.291502622129181,-26.0
6420,-4,0,1,-3,-7,-2,2,23,True,23,-7,1.25,9.254342609978147,8.74642784226795,10.0
6421,-1,-6,2,2,2,3,-3,-17,True,3,-17,-2.25,6.713525792862389,6.670832032063167,-18.0
6422,-1,-8,-1,1,0,-5,-5,-13,True,1,-13,-4.0,4.7509397566616824,5.979130371550699,-32.0
6423,-17,-5,-4,1,4,-7,-9,1,True,4,-17,-4.5,6.718843437888483,7.729812416870153,-36.0
6424,-10,3,2,6,32,18,8,3,True,32,-10,7.75,12.475690647930364,14.0089257261219,62.0
6425,-47,-5,-5,-1,-2,1,-2,-6,True,1,-47,-8.375,15.783694117664597,16.974245196767956,-67.0
6426,-4,3,-1,-2,-4,-3,-6,0,True,3,-6,-2.125,2.7998724460742337,3.3726843908080104,-17.0
6427,19,8,-1,-2,-5,-5,-4,-4,True,19,-5,0.75,8.514693182963201,8.0,6.0
6428,-25,1,-1,-4,-6,-12,-9,34,True,34,-25,-2.75,16.90097207686165,16.046806535881213,-22.0
6429,17,3,-1,-1,-3,13,7,8,True,17,-3,5.375,7.170126518110701,8.595056718835542,43.0
6430,15,7,3,-1,-6,-9,15,12,True,15,-9,4.5,9.319717960171479,9.810708435174291,36.0
6431,11,-14,-4,-2,1,-4,0,0,True,11,-14,-1.5,6.928203230275509,6.652067347825035,-12.0
6432,10,4,0,1,-4,0,-1,-7,True,10,-7,0.375,5.097268175909804,4.782781617427248,3.0
6433,7,-1,1,3,3,1,0,-15,True,7,-15,-0.125,6.490377492873585,6.072478900745559,-1.0
6434,-7,-24,-9,-4,-5,-5,-4,-9,True,-4,-24,-8.375,6.631903411324901,10.422331792837916,-67.0
6435,-4,3,6,2,2,-2,0,4,True,6,-4,1.375,3.2486260832190936,3.3354160160315836,11.0
6436,11,2,-19,-10,-7,-4,-4,-1,True,11,-19,-4.0,8.783100656536798,9.137833441248533,-32.0
6437,2,-15,-5,-3,2,-1,-2,-12,True,2,-15,-4.25,6.22781777878209,7.211102550927978,-34.0
6438,-5,-7,5,3,-1,1,1,-1,True,5,-7,-0.5,3.9641248358604595,3.7416573867739413,-4.0
6439,3,8,-4,-5,-6,-25,-16,-18,True,8,-25,-7.875,11.076841994513986,13.01441508482037,-63.0
6440,-9,-9,-5,-3,-5,-4,-6,-1,True,-1,-9,-5.25,2.7645717829090897,5.852349955359813,-42.0
6441,19,3,6,2,3,16,3,-8,True,19,-8,5.5,8.502100580780862,9.669539802906858,44.0
6442,-12,10,6,0,-12,-12,-4,1,True,10,-12,-2.875,8.609587678861281,8.551315688243536,-23.0
6443,-2,-11,-3,0,-1,6,2,6,True,6,-11,-0.375,5.475595205741825,5.135659646043535,-3.0
6444,5,15,15,4,-1,0,-3,-12,True,15,-12,2.875,9.093757670590776,8.979142498033985,23.0
6445,-3,-20,1,-1,-3,-2,-1,4,True,4,-20,-3.125,7.199950396654529,7.424621202458749,-25.0
6446,5,4,10,3,1,2,0,-10,True,10,-10,1.875,5.693040864574423,5.645794895318107,15.0
6447,8,-3,-5,-4,0,-2,-2,11,True,11,-5,0.375,5.8782285961479435,5.5113519212621505,3.0
6448,-4,-8,-6,-4,2,-12,-6,-3,True,2,-12,-5.125,4.051013982414068,6.373774391990981,-41.0
6449,-12,4,-3,-3,-2,1,4,2,True,4,-12,-1.125,5.249149590988185,5.0373604199024715,-9.0
6450,5,1,-3,3,3,2,-3,-11,True,5,-11,-0.375,5.1530157605591915,4.834769901453429,-3.0
6451,0,1,-4,-4,-4,-9,-8,-28,True,1,-28,-7.0,9.149551120917666,11.05667219374799,-56.0
6452,1,-3,0,-2,-5,1,4,3,True,4,-5,-0.125,3.044315545875155,2.850438562747845,-1.0
6453,-7,-7,0,1,2,5,5,11,True,11,-7,1.25,6.112048990080401,5.852349955359813,10.0
6454,-2,8,8,1,0,4,0,-7,True,8,-7,1.5,5.070925528371099,4.9749371855331,12.0
6455,-17,1,0,1,2,-1,-2,7,True,7,-17,-1.125,6.957780844904091,6.604922406811453,-9.0
6456,-16,-7,-16,-7,-6,3,4,5,True,5,-16,-5.0,8.417668492946419,9.327379053088816,-40.0
6457,-4,8,7,5,4,4,-1,-5,True,8,-5,2.25,4.949747468305833,5.1478150704935,18.0
6458,4,8,-4,-1,1,3,0,-3,True,8,-4,1.0,3.9279220242478625,3.8078865529319543,8.0
6459,-10,-2,15,5,2,2,2,-3,True,15,-10,1.375,7.170126518110701,6.846531968814577,11.0
6460,25,7,-1,2,2,0,-3,-21,True,25,-21,1.375,12.637105229103245,11.900630235411905,11.0
6461,16,3,-5,-1,-4,-3,-2,5,True,16,-5,1.125,6.91659495086171,6.566962768281849,9.0
6462,2,0,-3,-3,2,-2,-1,9,True,9,-3,0.5,3.9641248358604595,3.7416573867739413,4.0
6463,3,10,1,-2,-2,2,0,0,True,10,-2,1.5,3.854496446637726,3.905124837953327,12.0
6464,-1,1,0,-1,1,0,-2,2,True,2,-2,0.0,1.3093073414159542,1.224744871391589,0.0
6465,-1,3,-4,-3,-4,-3,-1,1,True,3,-4,-1.5,2.5071326821120348,2.7838821814150108,-12.0
6466,-3,-7,10,6,2,0,5,8,True,10,-7,2.625,5.755432216610669,5.989574275355469,21.0
6467,3,-3,-1,-2,-1,0,1,-18,True,3,-18,-2.625,6.4793628434548145,6.604922406811453,-21.0
6468,-12,-1,1,0,-1,0,1,6,True,6,-12,-0.75,5.063877678504601,4.795831523312719,-6.0
6469,-8,4,1,-3,0,-3,-2,2,True,4,-8,-1.125,3.720119045714225,3.6571847095819483,-9.0
6470,3,-5,-3,-1,2,-1,-4,-9,True,3,-9,-2.25,3.882193783343198,4.272001872658765,-18.0
6471,6,-7,-9,-2,-1,-4,-5,-1,True,6,-9,-2.875,4.580626906564522,5.1599418601375735,-23.0
6472,-4,-10,-7,-4,-2,11,5,6,True,11,-10,-0.625,7.20986427452992,6.773108592072033,-5.0
6473,-9,-3,-2,0,7,6,2,3,True,7,-9,0.5,5.209880722517277,4.898979485566356,4.0
6923,-1,-8,1,-3,-11,-1,0,3,True,3,-11,-2.5,4.7207747548166585,5.07444578254611,-20.0
6924,1,-17,-8,-4,3,8,3,-14,True,8,-17,-3.5,8.864052604279182,9.0,-28.0
6925,-1,10,-4,-6,-14,-6,-1,0,True,10,-14,-2.75,6.819090848492928,6.946221994724902,-22.0
6926,-5,-5,-9,-9,-2,4,6,4,True,6,-9,-2.0,6.0,5.958187643906492,-16.0
6927,1,7,2,-4,-5,1,0,2,True,7,-5,0.5,3.7416573867739413,3.5355339059327378,4.0
6928,-2,-8,-6,-7,-9,-3,-3,1,True,1,-9,-4.625,3.420004177106889,5.623610939600996,-37.0
6929,5,6,5,10,28,12,-4,5,True,28,-4,8.375,9.210824377561744,12.015614840697916,67.0
6930,-5,-12,-9,0,-2,-8,-14,-28,True,0,-28,-9.75,8.762745818846641,12.737739202856996,-78.0
6931,7,10,6,6,1,-1,1,-13,True,10,-13,2.125,7.140178069008003,7.0089228844380935,17.0
6932,-11,-9,-10,-12,-12,-2,-2,-1,True,-1,-12,-7.375,4.838461975226661,8.65303414993839,-59.0
6933,-7,1,-1,-1,2,-4,-2,-5,True,2,-7,-2.125,3.044315545875155,3.553167600887974,-17.0
6934,-4,-7,-4,-1,0,-6,-4,-9,True,0,-9,-4.375,2.9730936268953445,5.18411033833193,-35.0
6935,5,-1,-5,-2,-1,-11,-5,10,True,10,-11,-1.25,6.4309519401985,6.144102863722254,-10.0
6936,3,12,-3,1,4,0,3,7,True,12,-3,3.375,4.565006649971686,5.44288526426931,27.0
6937,-13,-29,-16,-9,-5,2,2,12,True,12,-29,-7.0,12.71669319101022,13.80217374184226,-56.0
6938,4,3,-3,-2,0,-5,-7,-35,True,4,-35,-5.625,12.44344348298676,12.927683473847896,-45.0
6939,-6,13,6,0,-3,-2,-1,8,True,13,-6,1.875,6.446205971621712,6.314665470157545,15.0
6940,2,0,-1,1,3,2,5,32,True,32,-1,5.5,10.862780491200215,11.554220008291344,44.0
6941,-6,0,-5,-5,-3,-6,-7,-22,True,0,-22,-6.75,6.541078984824621,9.1104335791443,-54.0
6942,-5,1,4,1,0,0,4,11,True,11,-5,2.0,4.59813626840888,4.743416490252569,16.0
6943,35,4,4,5,3,-7,2,-4,True,35,-7,5.25,12.758750498607387,13.038404810405298,42.0
6944,-10,-15,-5,0,-2,-7,1,5,True,5,-15,-4.125,6.468329437674439,7.322909257938405,-33.0
6945,-27,17,7,4,3,5,2,-8,True,17,-27,0.375,13.004806803639953,12.170661444638085,3.0
6946,4,2,-9,-3,2,3,3,10,True,10,-9,1.5,5.529143565818179,5.385164807134504,12.0
6947,3,3,1,1,0,3,1,-16,True,3,-16,-0.5,6.369570517030843,5.979130371550699,-4.0
6948,-8,-7,0,-3,-1,-3,-3,-1,True,0,-8,-3.25,2.866057521105554,4.2130748865881795,-26.0
6949,19,7,0,-3,-4,-3,-1,23,True,23,-4,4.75,10.646931147384342,11.034038245356955,38.0
6950,2,-8,-10,-3,-3,-3,-5,-2,True,2,-10,-4.0,3.7032803990902057,5.291502622129181,-32.0
6951,-15,6,10,3,1,1,1,4,True,10,-15,1.375,7.3082634247620195,6.9731628404906765,11.0
6952,16,24,30,8,4,4,6,-1,True,30,-1,11.375,10.888230867710853,15.26843148460247,91.0
6953,-2,-11,-4,-1,0,0,-1,-2,True,0,-11,-2.625,3.6228441865473595,4.286607049870562,-21.0
6954,0,-13,-1,1,-1,-1,-1,3,True,3,-13,-1.625,4.808846015417836,4.782781617427248,-13.0
6955,-4,-14,-3,-2,-2,-1,0,2,True,2,-14,-3.0,4.810702354423639,5.408326913195984,-24.0
6956,-1,6,5,-3,-3,-1,-1,0,True,6,-3,0.25,3.4121631178560534,3.2015621187164243,2.0
6957,-2,3,-4,-2,-3,0,-2,-3,True,3,-4,-1.625,2.1998376563477846,2.622022120425379,-13.0
6958,-1,5,11,5,4,1,-2,1,True,11,-2,3.0,4.174754056057845,4.924428900898052,24.0
6959,-9,-6,0,2,16,-1,0,3,True,16,-9,0.625,7.405355205139434,6.955213871621778,5.0
6960,4,-18,-4,-2,-5,-17,-10,-3,True,4,-18,-6.875,7.605214376615935,9.89317946870469,-55.0
6961,6,-1,-2,-3,-3,0,-4,-8,True,6,-8,-1.875,3.9798600118956085,4.168333000133266,-15.0
6962,-1,-1,-6,2,2,10,9,10,True,10,-6,3.125,5.962681563572838,6.393355926272211,25.0
6963,-20,-14,-6,-2,-5,-2,-2,-7,True,-2,-20,-7.25,6.519202405202649,9.473647660748208,-58.0
6964,-5,10,-2,-3,-1,3,0,1,True,10,-5,0.375,4.596194077712559,4.315669125408017,3.0
6965,-14,-5,-1,-3,-8,-7,2,5,True,5,-14,-3.875,6.010407640085654,6.8282501418738315,-31.0
6966,-2,-12,-6,1,1,0,3,-8,True,3,-12,-2.875,5.249149590988185,5.689903338370521,-23.0
6967,0,1,1,-3,-5,-3,1,-1,True,1,-5,-1.125,2.295181287579947,2.4238399287081647,-9.0
6968,22,16,-4,-7,1,-2,6,8,True,22,-7,5.0,10.071175275436895,10.665364503850771,40.0
6969,10,-2,3,1,1,4,2,-6,True,10,-6,1.625,4.627171304989074,4.623310502226732,13.0
6970,-16,-8,-1,1,-3,3,0,7,True,7,-16,-2.125,7.100050301632678,6.9731628404906765,-17.0
6971,-3,-1,7,-1,4,-14,-20,-5,True,7,-20,-4.125,8.951256894984079,9.334077351297235,-33.0
6972,1,9,-1,2,0,-5,-6,-2,True,9,-6,-0.25,4.652188425123938,4.358898943540674,-2.0
6973,11,29,-11,1,-10,-7,-19,-9,True,29,-19,-1.875,15.338443765351723,14.469796128487781,-15.0
6974,-8,11,2,5,6,3,-2,-2,True,11,-8,1.875,5.841660722773962,5.777110004145672,15.0
6975,16,10,-4,-7,-15,-1,4,0,True,16,-15,0.375,9.723866074179108,9.103570728016562,3.0
6976,-9,-16,-7,-6,-4,1,-4,-9,True,1,-16,-6.75,4.949747468305833,8.18535277187245,-54.0
6977,-5,-10,11,5,8,7,9,-7,True,11,-10,2.25,8.224527776283399,8.0156097709407,18.0
6978,4,11,-2,-4,-6,4,1,0,True,11,-6,1.0,5.371884479132333,5.123475382979799,8.0
6979,-3,3,-3,0,-1,3,0,0,True,3,-3,-0.125,2.295181287579947,2.1505813167606567,-1.0
6980,4,-2,6,2,0,-3,2,12,True,12,-3,2.625,4.808846015417836,5.208166663999915,21.0
6981,7,-10,-9,-1,3,4,2,0,True,7,-10,-0.5,6.07100838882165,5.70087712549569,-4.0
6982,0,-3,-5,-4,0,-3,-4,-23,True,0,-23,-5.25,7.4017372478165075,8.689073598491383,-42.0
6983,-7,-19,-10,-2,-1,2,4,4,True,4,-19,-3.625,7.981004233267175,8.299096336348915,-29.0
6984,-7,-10,-9,-2,-3,4,-3,0,True,4,-10,-3.75,4.713203338949605,5.787918451395113,-30.0
6985,-12,-9,0,-2,2,1,3,6,True,6,-12,-1.375,6.13974173491268,5.905505905508858,-11.0
6986,8,1,1,-2,-4,-20,-6,9,True,9,-20,-1.625,9.117291264405235,8.681877677092668,-13.0
6987,7,5,2,2,30,11,5,7,True,30,2,8.625,9.117291264405235,12.129509470708204,69.0
6988,-12,-7,-2,-1,-3,3,10,4,True,10,-12,-1.0,6.80336051416609,6.442049363362563,-8.0
6989,1,8,6,3,-6,-6,-3,-9,True,8,-9,-0.75,6.181770435262516,5.830951894845301,-6.0
6990,-13,8,5,4,7,5,7,15,True,15,-13,4.75,7.9417522355855805,8.817596044274199,38.0
6991,-6,0,-4,-4,1,3,0,2,True,3,-6,-1.0,3.251373336211726,3.2015621187164243,-8.0
6992,-5,0,9,2,1,2,-1,5,True,9,-5,1.625,4.138236339311712,4.198213905936666,13.0
6993,9,9,-7,-4,-7,0,1,-2,True,9,-7,-0.125,6.334429729659964,5.926634795564849,-1.0
6994,-8,-31,-5,-1,1,-2,-7,-12,True,1,-31,-8.125,10.148011768673845,12.4949989995998,-65.0
6995,-4,-10,-17,-5,-5,-2,-1,-4,True,-1,-17,-6.0,5.18238775634773,7.713624310270756,-48.0
6996,19,1,-8,-3,-4,2,0,-2,True,19,-8,0.625,8.070006195784487,7.574628703771558,5.0
6997,-11,-18,-5,-2,-6,-4,-1,8,True,8,-18,-4.875,7.567552916422662,8.595056718835542,-39.0
6998,-6,-4,-4,-4,-6,-1,-5,-41,True,-1,-41,-8.875,13.076014027873436,15.112081259707413,-71.0
6999,9,-5,-2,0,-3,-4,-2,4,True,9,-5,-0.375,4.68851179556401,4.401704215414752,-3.0
7000,6,20,10,1,0,-2,-2,4,True,20,-2,4.625,7.46300399111702,8.374067112222113,37.0
7001,-6,-2,1,1,-2,3,1,0,True,3,-6,-0.5,2.7774602993176543,2.6457513110645907,-4.0
7002,7,-7,-10,-2,-2,3,-3,-5,True,7,-10,-2.375,5.3967582862307255,5.578978401105349,-19.0
7003,-2,18,11,4,1,-1,0,-6,True,18,-6,3.125,7.790791267350741,7.929375763576853,25.0
7004,-1,-4,13,1,-3,-2,1,5,True,13,-4,1.25,5.522680508593631,5.315072906367325,10.0
7005,-10,1,8,2,1,-2,0,1,True,8,-10,0.125,4.9982139667227985,4.677071733467427,1.0
7006,15,11,5,1,0,2,-1,-1,True,15,-1,4.0,5.976143046671968,6.87386354243376,32.0
7007,-3,-1,-7,-3,2,0,-2,-4,True,2,-7,-2.25,2.712405363721075,3.391164991562634,-18.0
7008,-5,-3,-2,0,-4,-1,-3,-1,True,0,-5,-2.375,1.6850180160122068,2.850438562747845,-19.0
