,EMG 1,EMG 2,EMG 3,EMG 4,EMG 5,EMG 6,EMG 7,EMG 8,Eat,Max,Min,Mean,StD,RMS,FFT
1090,-15,0,0,-1,5,0,-3,2,True,5,-15,-1.5,5.9281411203561225,5.744562646538029,-12.0
1091,-5,-11,-6,-3,-3,-2,6,1,True,6,-11,-2.875,4.9982139667227985,5.488624600025037,-23.0
1092,8,2,0,-6,-7,-6,-7,-14,True,8,-14,-3.75,6.777062153217383,7.365459931328117,-30.0
1093,-5,-2,0,-5,-11,-6,-4,3,True,3,-11,-3.75,4.200340122282616,5.431390245600108,-30.0
1094,-8,-6,3,1,3,1,-5,-19,True,3,-19,-3.75,7.497618669570072,7.952986860293433,-30.0
1095,7,4,-1,-4,-5,-6,-4,5,True,7,-6,-0.5,5.0990195135927845,4.795831523312719,-4.0
1096,20,14,0,-3,-1,-2,-3,-3,True,20,-3,2.75,9.00396737951824,8.860022573334675,22.0
1097,-30,-30,-11,2,5,0,5,-1,True,5,-30,-7.5,14.7648230602334,15.716233645501712,-60.0
1098,1,13,-6,-2,2,-1,-4,12,True,13,-6,1.875,7.039429765866794,6.846531968814577,15.0
1099,-14,-17,-11,-5,1,-2,0,3,True,3,-17,-5.625,7.4821215478728265,8.979142498033985,-45.0
1100,21,-10,-7,-3,-6,0,-4,13,True,21,-10,0.5,10.810048235652921,10.124228365658293,4.0
1101,-6,8,-3,-3,1,-2,-2,-7,True,8,-7,-1.75,4.652188425123938,4.69041575982343,-14.0
1102,-18,-11,-2,-3,-1,-3,-7,-9,True,-1,-18,-6.75,5.775564289066727,8.645808232895291,-54.0
1103,1,14,18,6,5,2,4,11,True,18,1,7.625,6.06953752062591,9.506576670915772,61.0
1104,-15,-5,-4,-3,-5,2,1,-1,True,2,-15,-3.75,5.257647491307984,6.18465843842649,-30.0
1105,-2,-15,-6,-3,-3,-3,-3,-8,True,-2,-15,-5.375,4.373213921133975,6.754628043053148,-43.0
1106,4,0,-4,-2,-2,-1,1,4,True,4,-4,0.0,2.8784916685156974,2.692582403567252,0.0
1107,14,11,11,2,0,0,3,-13,True,14,-13,3.5,8.635475005547093,8.803408430829505,28.0
1108,-26,-17,-3,-2,6,-1,-3,-4,True,6,-26,-6.25,10.194536351819607,11.40175425099138,-50.0
1109,-25,-26,-7,0,6,4,3,-3,True,6,-26,-6.0,12.71669319101022,13.322912594474229,-48.0
1110,21,20,2,-3,0,12,7,-9,True,21,-9,6.25,10.793516572461451,11.874342087037917,50.0
1111,-8,-1,2,3,-5,-10,-8,-6,True,3,-10,-4.125,4.882549100038392,6.154266812545585,-33.0
1112,-10,-41,-4,-2,-4,-3,-16,3,True,3,-41,-9.625,13.886658551080087,16.167096214224742,-77.0
1113,25,20,3,-6,-11,-2,1,17,True,25,-11,5.875,13.141401316885066,13.624426593438713,47.0
1114,3,2,0,-1,2,5,6,14,True,14,-1,3.875,4.703721930556695,5.863019699779287,31.0
1115,-22,1,1,3,17,3,-1,-6,True,17,-22,-0.5,10.875923606099589,10.18577439373168,-4.0
1116,10,1,1,2,-3,-5,-3,-1,True,10,-5,0.25,4.621378891320518,4.330127018922194,2.0
1117,-8,-2,-3,-2,-11,-2,-1,-4,True,-1,-11,-4.125,3.5228843701879127,5.2796780204857185,-33.0
1118,7,3,1,1,-4,1,4,9,True,9,-4,2.75,4.026696625558686,4.663689526544408,22.0
1119,-1,-2,-1,-3,4,1,-2,-14,True,4,-14,-2.25,5.230405611149374,5.385164807134504,-18.0
1120,-5,6,10,9,-3,-1,2,-1,True,10,-5,2.125,5.617256574927962,5.667892024377317,17.0
1121,0,4,5,1,4,4,17,10,True,17,0,5.625,5.475595205741825,7.607562027351469,45.0
1122,-3,-1,-5,-5,-2,-6,-5,-3,True,-1,-6,-3.75,1.752549163769328,4.092676385936225,-30.0
1123,1,-10,-7,-1,-8,-6,1,1,True,1,-10,-3.625,4.596194077712559,5.623610939600996,-29.0
1124,6,-13,-4,-3,-3,-4,1,5,True,6,-13,-1.875,6.010407640085654,5.926634795564849,-15.0
1125,1,14,7,2,10,5,-13,-10,True,14,-13,2.0,9.350324669687755,8.972179222463181,16.0
1126,-1,0,-8,-6,0,-3,-5,9,True,9,-8,-1.75,5.230405611149374,5.196152422706632,-14.0
1127,3,2,2,-1,-11,-8,-2,3,True,3,-11,-1.5,5.31843156256751,5.196152422706632,-12.0
1128,1,4,-3,1,0,-1,1,-9,True,4,-9,-0.75,3.882193783343198,3.7080992435478315,-6.0
1129,-15,-4,-10,-6,-10,-6,-1,3,True,3,-15,-6.125,5.642631098546644,8.085480814398114,-49.0
1130,-2,4,-6,-3,-5,-4,-8,-23,True,4,-23,-5.875,7.772432970808708,9.347459547919959,-47.0
1131,21,4,-3,5,13,3,3,5,True,21,-3,6.375,7.347254103210454,9.374166629626338,51.0
1132,-1,-3,-7,-4,-2,0,5,-2,True,5,-7,-1.75,3.4537764010675946,3.6742346141747673,-14.0
1133,3,2,-1,-1,-8,-2,-1,-7,True,3,-8,-1.875,3.8706773124535783,4.077376607575022,-15.0
1134,10,-2,2,6,4,5,-2,-3,True,10,-3,2.5,4.59813626840888,4.9749371855331,20.0
1135,-11,-6,5,1,-1,4,-1,8,True,8,-11,-0.125,6.151364540838538,5.755432216610669,-1.0
1136,-9,2,3,-4,7,-1,2,21,True,21,-9,2.625,8.863045268335902,8.696263565463044,21.0
1137,-11,-1,-1,-2,-1,13,8,6,True,13,-11,1.375,7.386038953902926,7.044501401802686,11.0
1138,19,13,1,1,-1,0,12,9,True,19,-1,6.75,7.497618669570072,9.733961166965893,54.0
1139,-1,-7,-5,-6,4,6,-11,-10,True,6,-11,-3.75,6.22781777878209,6.928203230275509,-30.0
1140,27,4,4,7,7,-1,-3,-23,True,27,-23,2.75,13.822858914545447,13.219304066402286,22.0
1141,-18,-20,0,-1,3,-5,6,0,True,6,-20,-4.375,9.575825216211319,9.968701018688442,-35.0
1142,1,-3,-8,-4,-2,-8,-14,-7,True,1,-14,-5.625,4.627171304989074,7.097534783289195,-45.0
1143,-15,8,7,-3,-4,-6,-6,0,True,8,-15,-2.375,7.46300399111702,7.3739406018763125,-19.0
1144,15,11,1,3,21,3,3,6,True,21,1,7.875,7.120142454433659,10.313825672368134,63.0
1145,-2,-8,-5,11,1,-4,-7,-4,True,11,-8,-2.25,6.041522986797286,6.082762530298219,-18.0
1146,-25,2,1,2,4,-4,4,-11,True,4,-25,-3.375,10.0844647141744,10.01873245475694,-27.0
1147,42,0,-4,-6,-5,-4,1,0,True,42,-6,3.0,15.973191827022461,15.239750654128171,24.0
1148,3,-4,-3,-6,-13,-5,-14,-16,True,3,-16,-7.25,6.497252166438187,9.460443964212251,-58.0
1149,-21,-17,-6,-1,0,-2,2,-5,True,2,-21,-6.25,8.345229603962801,10.0,-50.0
1150,0,-3,-1,1,0,2,1,8,True,8,-3,1.0,3.2071349029490923,3.1622776601683795,8.0
1151,13,14,5,-3,-2,-5,-3,0,True,14,-5,2.375,7.4821215478728265,7.390872749547241,19.0
1152,-3,-5,0,-6,-14,0,-13,12,True,12,-14,-3.625,8.227783940492639,8.507349763586777,-29.0
1153,9,14,-1,-5,-13,-6,4,17,True,17,-13,2.375,10.473606283006278,10.080922576827977,19.0
1154,-15,-11,-1,-5,-11,0,12,14,True,14,-15,-2.125,10.669549461635468,10.204165815979275,-17.0
1155,2,5,2,9,18,5,2,-18,True,18,-18,3.125,10.091545258992088,9.943590900675671,25.0
1156,-9,-14,-7,-1,1,-2,-5,-18,True,1,-18,-6.875,6.577830732305077,9.226321043622967,-55.0
1157,10,-1,6,-2,-3,-2,1,-9,True,10,-9,0.0,5.80640040940045,5.431390245600108,0.0
1158,2,5,-5,-1,1,-1,-1,-2,True,5,-5,-0.25,2.9640705601780613,2.7838821814150108,-2.0
1159,-14,-12,0,-2,0,4,7,4,True,7,-14,-1.625,7.595816517756901,7.2886898685566255,-13.0
1160,1,-2,-7,-6,-7,-4,-4,-3,True,1,-7,-4.0,2.7255405754769875,4.743416490252569,-32.0
1161,22,-3,-9,-7,-4,-1,5,25,True,25,-9,3.5,13.04935685333627,12.698425099200294,28.0
1162,14,5,10,6,18,2,0,8,True,18,0,7.875,6.010407640085654,9.676001240181813,63.0
1163,8,-8,-4,0,-1,0,-3,-16,True,8,-16,-3.0,6.948792289723034,7.158910531638177,-24.0
1164,-19,2,6,-1,-6,-2,2,-7,True,6,-19,-3.125,7.717096048940393,7.866066361276137,-25.0
1165,-23,-19,-9,-4,-2,1,-10,-2,True,1,-23,-8.5,8.602325267042627,11.704699910719626,-68.0
1166,-16,-9,-8,-2,-1,1,-4,6,True,6,-16,-4.125,6.791538853603062,7.574628703771558,-33.0
1167,-33,-13,-5,-2,-2,4,3,-23,True,4,-33,-8.875,13.173973258989538,15.18634254848744,-71.0
1168,26,15,7,3,3,-15,0,15,True,26,-15,6.75,12.267844146385297,13.313526955694348,54.0
1169,12,13,3,1,-1,-1,-5,-1,True,13,-5,2.625,6.501373481262028,6.623820649745885,21.0
1170,4,-4,-2,1,11,7,6,23,True,23,-4,5.75,8.514693182963201,9.82344135219425,46.0
1363,-2,10,3,3,13,9,4,14,True,14,-2,6.75,5.599744892148467,8.54400374531753,54.0
1364,3,-5,-1,-6,0,0,-2,12,True,12,-6,0.125,5.5917669070569405,5.232112384114087,1.0
1365,-2,1,-4,-1,-12,-6,1,7,True,7,-12,-2.0,5.606119105813881,5.612486080160912,-16.0
1366,13,-15,-10,-6,-9,-12,-2,7,True,13,-15,-4.25,9.7357955137582,10.04987562112089,-34.0
1367,-13,-12,-3,-3,-5,-10,-4,6,True,6,-13,-5.5,6.164414002968976,7.968688725254614,-44.0
1368,19,1,-5,0,-1,0,-1,-1,True,19,-5,1.5,7.28991475552747,6.98212002188447,12.0
1369,-4,-11,5,2,2,1,2,0,True,5,-11,-0.375,4.983902658989812,4.677071733467427,-3.0
1370,-2,11,1,-2,-2,-3,-1,10,True,11,-3,1.5,5.68205194324324,5.522680508593631,12.0
1371,-1,-7,4,5,-3,9,1,1,True,9,-7,1.125,4.969550137731641,4.782781617427248,9.0
1372,-1,4,0,0,0,-6,-1,1,True,4,-6,-0.375,2.774243783705493,2.622022120425379,-3.0
1373,-4,-1,-6,-4,-4,-4,-1,11,True,11,-6,-1.625,5.370222128951997,5.2796780204857185,-13.0
1374,-2,8,-2,-3,0,11,3,-12,True,11,-12,0.375,7.110103475236589,6.661456297237114,3.0
1375,-13,4,-9,-4,-2,-1,4,-7,True,4,-13,-3.5,6.023762469230862,6.6332495807108,-28.0
1376,6,-1,0,1,9,-5,-3,-16,True,9,-16,-1.125,7.548651724456683,7.1501748230375455,-9.0
1377,-15,-9,1,-2,-4,2,-3,-7,True,2,-15,-4.625,5.578978401105349,6.9731628404906765,-37.0
1378,-15,1,3,1,-2,0,-2,0,True,3,-15,-1.75,5.599744892148467,5.522680508593631,-14.0
1379,16,9,4,-1,-4,-2,0,-9,True,16,-9,1.625,7.872873862646528,7.541551564499178,13.0
1380,2,-4,-3,-4,-1,-3,-3,-7,True,2,-7,-2.875,2.5877458475338284,3.758324094593227,-23.0
1381,6,7,5,-4,-8,-3,1,-6,True,7,-8,-0.25,5.800246300189082,5.431390245600108,-2.0
1382,0,-9,-1,0,-3,-9,-13,2,True,2,-13,-4.125,5.462534733462636,6.566962768281849,-33.0
1383,2,-15,0,2,6,1,0,5,True,6,-15,0.125,6.490377492873585,6.072478900745559,1.0
1384,16,4,-1,-2,0,-4,-3,-16,True,16,-16,-0.75,8.892211680534183,8.351646544245034,-6.0
1385,-21,-5,-1,1,9,-14,-7,-2,True,9,-21,-5.0,9.242757782641036,9.987492177719089,-40.0
1386,28,7,-1,0,-5,-1,1,3,True,28,-5,4.0,10.295630140987,10.428326807307105,32.0
1387,4,-4,2,3,4,4,-1,-15,True,4,-15,-0.375,6.566962768281849,6.154266812545585,-3.0
1388,-12,-1,2,-2,28,21,6,12,True,28,-12,6.75,13.057564857200596,13.955285736952863,54.0
1389,-2,8,-3,-1,-8,1,-2,0,True,8,-8,-0.875,4.4860896112315904,4.286607049870562,-7.0
1390,-13,0,3,3,1,4,7,24,True,24,-13,3.625,10.169105874447089,10.179636535751166,29.0
1391,-17,-15,-4,0,3,5,1,-7,True,5,-17,-4.25,8.18971480403491,8.760707733967616,-34.0
1392,2,-8,-5,-1,-10,-9,-4,-5,True,2,-10,-5.0,4.070801956792859,6.284902544988268,-40.0
1393,-3,7,-2,0,-1,-15,-5,-4,True,7,-15,-2.875,6.128096884724606,6.41287766919033,-23.0
1394,-16,-1,-1,-3,-10,-3,2,-1,True,2,-16,-4.125,5.914570386523678,6.90108687092113,-33.0
1395,1,0,8,8,1,6,4,5,True,8,0,4.125,3.181980515339464,5.086747487343951,33.0
1396,-4,-4,-1,-4,-11,-7,-1,-7,True,-1,-11,-4.875,3.3567628964311944,5.798706752371601,-39.0
1397,10,10,2,-2,5,4,-1,-18,True,10,-18,1.25,8.956242834709524,8.470537173048708,10.0
1398,6,10,1,-2,-9,-10,-4,4,True,10,-10,-0.5,7.091242083423347,6.652067347825035,-4.0
1399,-2,-2,5,4,25,12,3,1,True,25,-2,5.75,8.972179222463181,10.173494974687902,46.0
1400,20,16,0,-3,-1,0,0,9,True,20,-3,5.125,8.757649717328764,9.663074045043844,41.0
1401,-3,-4,2,0,-10,-6,-8,5,True,5,-10,-3.0,5.0990195135927845,5.634713834792322,-24.0
1402,1,-11,6,8,8,7,9,10,True,10,-11,4.75,6.923046397979102,8.031189202104505,38.0
1403,2,-1,0,-3,-6,1,0,5,True,5,-6,-0.25,3.284161123592185,3.082207001484488,-2.0
1404,5,-9,-4,0,-5,0,-4,0,True,5,-9,-2.125,4.257346591481601,4.513867521316947,-17.0
1405,1,-14,-5,-5,-5,-2,-1,-13,True,1,-14,-5.5,5.398412465054624,7.466592261534039,-44.0
1406,7,22,0,3,1,-1,7,-9,True,22,-9,3.75,8.956242834709524,9.17877987534291,30.0
1407,1,14,-4,-4,-4,-4,3,11,True,14,-4,1.625,7.269063606427289,6.991065727054782,13.0
1408,-14,-17,-3,-1,-1,3,2,-14,True,3,-17,-5.625,8.034523721327322,9.387491677759293,-45.0
1409,0,-8,-5,-5,-8,-3,-4,-11,True,0,-11,-5.5,3.4226138716316967,6.363961030678928,-44.0
1410,-19,2,-3,-3,-11,-9,-4,-12,True,2,-19,-7.375,6.653409437488207,9.650129532809391,-59.0
1411,-3,-1,3,3,29,15,1,3,True,29,-3,6.25,10.63350499936068,11.74734012447073,50.0
1412,-2,1,0,-2,4,-1,-2,-1,True,4,-2,-0.375,2.0658792662827956,1.9685019685029528,-3.0
1413,-15,-21,3,3,-5,-4,-2,-6,True,3,-21,-5.875,8.356990230596521,9.778803607803972,-47.0
1414,7,-18,-4,-5,1,-13,-10,7,True,7,-18,-4.375,9.101608962940878,9.572094859538323,-35.0
1415,12,4,-3,0,-10,-3,-1,2,True,12,-10,0.125,6.356942211921883,5.947688626685159,1.0
1416,-9,-3,-8,-2,-4,3,-3,0,True,3,-9,-3.25,3.918819064098629,4.898979485566356,-26.0
1417,19,20,-1,-2,-4,-1,0,9,True,20,-4,5.0,9.739463170891035,10.392304845413264,40.0
1418,-3,1,-1,1,6,7,-2,-4,True,7,-4,0.625,4.033343171967536,3.824264635194589,5.0
1419,-9,8,2,10,-2,-5,3,4,True,10,-9,1.375,6.41287766919033,6.154266812545585,11.0
1420,5,0,-3,2,6,3,-1,-8,True,6,-8,0.5,4.566962103755937,4.301162633521313,4.0
1421,-11,-14,0,-5,-10,-2,-1,4,True,4,-14,-4.875,6.243568119044018,7.607562027351469,-39.0
1422,9,0,9,7,6,1,-2,6,True,9,-2,4.5,4.242640687119285,6.0,36.0
1423,-1,2,-6,-2,-1,-4,-5,-13,True,2,-13,-3.75,4.527692569068709,5.656854249492381,-30.0
1424,-1,-1,-1,-6,-15,-5,-1,-11,True,-1,-15,-5.125,5.356904756613521,7.167635593415725,-41.0
1425,3,-3,-2,-2,-3,4,-1,5,True,5,-3,0.125,3.3139316313320126,3.1024184114977142,1.0
1426,-2,2,5,-1,-4,-1,0,11,True,11,-4,1.25,4.77343841331532,4.636809247747852,10.0
1427,-5,-4,-3,-2,-1,-35,-19,-13,True,-1,-35,-10.25,11.76860229593982,15.041608956491324,-82.0
1428,5,7,-2,-3,-4,-4,-2,0,True,7,-4,-0.375,4.172614801981401,3.9210967853395307,-3.0
1429,-9,-11,14,0,-1,9,5,-9,True,14,-11,-0.25,9.145646895810987,8.558621384311845,-2.0
1430,1,3,-8,0,-1,-4,-7,-3,True,3,-8,-2.375,3.8521793460696654,4.315669125408017,-19.0
1707,10,9,0,-3,7,5,-4,-7,True,10,-7,2.125,6.468329437674439,6.41287766919033,17.0
1708,-2,-8,-8,-8,-8,-2,2,10,True,10,-8,-3.0,6.502746672423452,6.782329983125268,-24.0
1709,20,4,-1,-6,-19,-7,-4,2,True,20,-19,-1.375,11.13472688740693,10.505950694725348,-11.0
1710,-8,1,1,5,30,6,2,6,True,30,-8,5.375,10.927520957916954,11.548809462451096,43.0
1711,-6,-18,-8,-3,-1,-3,0,-5,True,0,-18,-5.5,5.68205194324324,7.648529270389178,-44.0
1712,8,-6,-2,-3,-7,-12,-8,-8,True,8,-12,-4.75,6.017830648521585,7.365459931328117,-38.0
1713,4,7,4,4,-15,-5,-1,-5,True,7,-15,-0.875,7.239524451627626,6.8282501418738315,-7.0
1714,-26,-8,3,-2,-6,6,6,7,True,7,-26,-2.5,11.084094137869041,10.665364503850771,-20.0
1715,15,-4,-4,-4,2,-1,-2,-17,True,15,-17,-1.875,8.806450557890587,8.448372624357901,-15.0
1716,4,12,-6,-2,-10,-2,-1,11,True,12,-10,0.75,7.7597864477242995,7.297259759663212,6.0
1717,0,7,0,0,-6,-6,-2,8,True,8,-6,0.125,5.19443383412888,4.860555523805895,1.0
1718,4,-11,-7,-1,-3,-4,-3,-10,True,4,-11,-4.375,4.897156609415596,6.334429729659964,-35.0
1719,15,10,3,1,3,2,2,-11,True,15,-11,3.125,7.510706643566522,7.6892782496148495,25.0
1720,-14,-18,-8,-4,-4,-3,-1,0,True,0,-18,-6.5,6.414269805898185,8.845903006477066,-52.0
1721,6,4,0,2,-1,-1,4,14,True,14,-1,3.5,4.956957592256421,5.809475019311125,28.0
1722,6,-1,-1,-2,0,2,-1,2,True,6,-2,0.625,2.615202805574687,2.5248762345905194,5.0
1723,-3,-2,0,-1,-4,-2,-1,4,True,4,-4,-1.125,2.416461403433896,2.5248762345905194,-9.0
1724,-15,-6,6,3,0,-2,-2,-5,True,6,-15,-2.625,6.368168608679533,6.509608283145768,-21.0
1725,-7,-7,-7,-7,-18,-9,-6,-4,True,-4,-18,-8.125,4.223657859520076,9.034655499796326,-65.0
1726,7,3,6,6,25,17,0,4,True,25,0,8.5,8.298020417975774,11.510864433221338,68.0
1727,-6,-3,-2,-2,-8,-8,-7,-10,True,-2,-10,-5.75,3.0589447293376937,6.422616289332565,-46.0
1728,7,-6,-2,-4,-12,-6,-2,-7,True,7,-12,-4.0,5.477225575051661,6.5,-32.0
1729,-12,-3,7,1,11,7,3,-5,True,11,-12,1.125,7.529703086538577,7.132671308843553,9.0
1730,-7,5,-4,-2,-5,-2,6,11,True,11,-7,0.25,6.318905872741849,5.916079783099616,2.0
1731,1,-5,4,1,3,-1,-3,9,True,9,-5,1.125,4.356850107261306,4.227883631321941,9.0
1732,12,10,0,-2,-7,-8,-1,13,True,13,-8,2.125,8.408116826699578,8.147085368400163,17.0
1733,6,5,-3,2,21,7,2,7,True,21,-3,5.875,6.978282637685906,8.782084035125148,47.0
1734,17,5,-5,-2,0,8,-1,-4,True,17,-5,2.25,7.4017372478165075,7.280109889280518,18.0
1735,-7,-4,1,3,7,0,12,1,True,12,-7,1.625,5.950690236074659,5.798706752371601,13.0
1736,2,2,2,-3,-7,-4,-4,-16,True,2,-16,-3.5,6.09449400220044,6.689544080129826,-28.0
1737,-9,-12,-2,-1,-4,3,0,-3,True,3,-12,-3.5,4.869731585445518,5.744562646538029,-28.0
1738,7,-10,-8,-2,-9,-1,4,-4,True,7,-10,-2.875,6.151364540838538,6.4323401651343035,-23.0
1739,32,4,-1,-2,-9,-14,-15,-4,True,32,-15,-1.125,14.894270231007818,13.977660748494364,-9.0
1740,23,4,5,-2,-2,-4,-5,2,True,23,-5,2.625,9.00694176732591,8.824681297361396,21.0
1741,-31,2,-4,0,30,3,0,-4,True,30,-31,-0.5,16.492422502470642,15.435349040433131,-4.0
1742,-20,-14,1,2,2,-2,-2,2,True,2,-20,-3.875,8.425090080061034,8.782084035125148,-31.0
1743,27,16,0,-4,-14,-3,-3,-4,True,27,-14,1.875,13.10874844194844,12.404636230055278,15.0
1744,-15,-1,2,-2,-1,-26,-11,-20,True,2,-26,-9.25,10.33371735077529,13.379088160259652,-74.0
1745,-3,0,1,1,-1,-13,-16,-9,True,1,-16,-5.0,6.740072064048827,8.04673846971554,-40.0
1746,0,-3,0,7,-6,3,3,-1,True,7,-6,0.375,3.9977672339873487,3.758324094593227,3.0
1747,12,2,-3,-2,-1,4,2,-13,True,12,-13,0.125,7.079901129253148,6.623820649745885,1.0
1748,-4,-2,-5,-1,9,1,-3,4,True,9,-5,-0.125,4.6732521560777895,4.373213921133975,-1.0
1749,-19,-8,-1,-10,-7,7,11,25,True,25,-19,-0.25,13.987239082208367,13.0862523283024,-2.0
1750,1,-4,-3,-2,5,1,-4,-6,True,5,-6,-1.5,3.585685828003181,3.6742346141747673,-12.0
1751,-10,-13,-5,-7,-20,0,1,0,True,1,-20,-6.75,7.363035088486657,9.643650760992955,-54.0
1752,-9,18,0,-5,-7,1,3,19,True,19,-9,2.5,10.690449676496975,10.307764064044152,20.0
1753,0,12,10,-3,-6,0,-1,-3,True,12,-6,1.125,6.424006315599101,6.113509630318742,9.0
1754,-6,-9,-3,7,2,3,-1,-9,True,7,-9,-2.0,5.830951894845301,5.809475019311125,-16.0
1755,-10,8,9,40,93,16,4,-1,True,93,-10,19.875,32.96507892560594,36.68616905592624,159.0
1756,4,12,3,0,-3,3,2,5,True,12,-3,3.25,4.334248987508019,5.196152422706632,26.0
1757,6,-10,-8,-11,-32,-5,-6,-4,True,6,-32,-8.75,10.75373689202303,13.332291625973383,-70.0
1758,4,1,9,6,11,1,3,5,True,11,1,5.0,3.585685828003181,6.020797289396148,40.0
1759,-1,-12,-9,0,1,-1,-1,-7,True,1,-12,-3.75,4.862392121462145,5.894913061275798,-30.0
1760,-22,-17,-5,-6,-3,-4,3,-3,True,3,-22,-7.125,8.201698430377524,10.470195795685962,-57.0
1761,-3,0,-5,-4,-14,-5,3,-4,True,3,-14,-4.0,4.898979485566356,6.082762530298219,-32.0
1762,11,-8,4,-2,-1,-1,-2,-9,True,11,-9,-1.0,6.369570517030843,6.041522986797286,-8.0
1763,-2,0,-5,-6,-16,-3,-1,15,True,15,-16,-2.25,8.581541653039805,8.336666000266533,-18.0
1764,1,3,1,-6,-17,3,-9,-22,True,3,-22,-5.75,9.602826964716469,10.665364503850771,-46.0
1765,4,-6,-9,-19,-39,-3,7,-1,True,7,-39,-8.25,14.781745499094482,16.101242188104617,-66.0
1766,0,2,7,16,43,12,4,-3,True,43,-3,10.125,14.672009308300522,17.05505790081054,81.0
1767,11,-8,-6,-1,6,4,2,-9,True,11,-9,-0.125,7.16015761997298,6.698880503487131,-1.0
1768,3,11,-5,-6,-8,0,2,-4,True,11,-8,-0.875,6.197637798848388,5.863019699779287,-7.0
1769,-17,14,-1,-6,-10,-6,1,6,True,14,-17,-2.375,9.635314510397972,9.320675941153624,-19.0
1770,7,15,4,1,-1,-3,1,8,True,15,-3,4.0,5.830951894845301,6.7638746292343415,32.0
1771,-6,-1,1,2,-7,-8,-8,13,True,13,-8,-1.75,7.206148168652336,6.96419413859206,-14.0
1772,-19,-11,-7,7,17,6,8,6,True,17,-19,0.875,11.945561040463046,11.208255885729947,7.0
1773,-18,-7,1,0,6,5,7,23,True,23,-18,2.125,11.813279452741792,11.2527774349269,17.0
1774,-14,-5,-4,-7,-14,-11,-2,4,True,4,-14,-6.625,6.232117273791125,8.824681297361396,-53.0
1775,-9,-16,4,5,4,5,7,3,True,7,-16,0.375,8.245128431816138,7.721722605740251,3.0
1776,-24,-15,-6,-12,-15,-2,1,-9,True,1,-24,-10.25,8.031189202104505,12.708265027138834,-82.0
1777,18,15,0,4,8,3,-11,-53,True,18,-53,-2.0,22.475383359196726,21.118712081942874,-16.0
1778,3,17,-8,-8,-8,-8,-5,7,True,17,-8,-1.25,9.37702359112802,8.860022573334675,-10.0
1779,7,4,10,2,2,-5,-4,-7,True,10,-7,1.125,6.010407640085654,5.733672470589857,9.0
1780,-5,-20,-6,-5,-5,-2,0,18,True,18,-20,-3.125,10.425757937504043,10.240849574132021,-25.0
1781,-2,-13,-3,-4,-3,-3,-2,9,True,9,-13,-2.625,5.926634795564849,6.1339220731926485,-21.0
1782,3,-12,-2,-2,-4,-1,-9,-7,True,3,-12,-4.25,4.832922806867792,6.2048368229954285,-34.0
1783,28,6,2,4,4,7,1,-1,True,28,-1,6.375,9.117291264405235,10.647769719523428,51.0
1784,-5,2,-1,9,10,2,4,11,True,11,-5,4.0,5.656854249492381,6.6332495807108,32.0
1785,6,-1,-5,-5,-7,-19,-15,-4,True,6,-19,-6.25,7.796519369931321,9.604686356149273,-50.0
1786,11,6,5,-3,-1,1,1,2,True,11,-3,2.75,4.432026302139591,4.9749371855331,22.0
1787,-9,-1,1,-3,-1,-1,7,6,True,7,-9,-0.125,5.055054048036621,4.7302219821061255,-1.0
1788,0,3,8,2,3,-1,0,4,True,8,-1,2.375,2.8753881725529062,3.588175023601831,19.0
1789,-18,7,2,0,7,11,1,-17,True,11,-18,-0.875,10.894789055848147,10.228636272739392,-7.0
1790,15,4,2,-9,-13,8,1,-30,True,15,-30,-2.75,14.139610016848817,13.509256086106296,-22.0
1920,-9,6,1,2,5,0,-4,-19,True,6,-19,-2.25,8.310922245541018,8.093207028119323,-18.0
1921,-5,-17,-15,-5,-8,-4,-4,-4,True,-4,-17,-7.75,5.284748946598261,9.192388155425117,-62.0
1922,-3,-2,-3,-2,-4,-3,2,28,True,28,-4,1.625,10.809222252978506,10.240849574132021,13.0
1923,-1,-20,2,-2,-10,-2,0,-2,True,2,-20,-4.375,7.20986427452992,8.038967595406763,-35.0
1924,17,12,25,5,-2,1,-3,1,True,25,-3,7.0,10.042765697612529,11.715374513859981,56.0
1925,-3,-1,-10,-4,-1,-3,2,5,True,5,-10,-1.875,4.421942042651783,4.541475531146237,-15.0
1926,-2,-4,-10,-2,-5,2,-4,4,True,4,-10,-2.625,4.307385683749649,4.808846015417836,-21.0
1927,-3,13,14,6,6,3,-4,-7,True,14,-7,3.5,7.764387566686396,8.06225774829855,28.0
1928,-10,1,6,12,16,1,3,-8,True,16,-10,2.625,8.91126894924142,8.739279146474267,21.0
1929,-3,-6,-7,-4,-3,0,-2,-3,True,0,-7,-3.5,2.2038926600773587,4.06201920231798,-28.0
1930,-1,-4,-3,-5,-8,-3,-6,-15,True,-1,-15,-5.625,4.34042460069124,6.937218462755804,-45.0
1931,0,3,-5,2,1,-2,2,10,True,10,-5,1.375,4.34042460069124,4.286607049870562,11.0
1932,-6,-3,-2,-2,3,1,-1,6,True,6,-6,-0.5,3.7416573867739413,3.5355339059327378,-4.0
1933,-3,-3,-8,-6,-5,-1,-2,-16,True,-1,-16,-5.5,4.810702354423639,7.106335201775948,-44.0
1934,-5,-3,-5,-6,-5,0,1,-8,True,1,-8,-3.875,3.044315545875155,4.808846015417836,-31.0
1935,10,-1,-5,-5,0,-2,0,2,True,10,-5,-0.125,4.764076885549662,4.458138625031752,-1.0
1936,5,-3,-3,-1,-3,-1,-1,6,True,6,-3,-0.125,3.603074084326168,3.3726843908080104,-1.0
1937,-4,-10,-6,-5,-4,-3,-1,-6,True,-1,-10,-4.875,2.6423744732991303,5.465802777268862,-39.0
1938,-1,-7,1,0,-3,0,-1,-5,True,1,-7,-2.0,2.7774602993176543,3.278719262151,-16.0
1939,-6,-7,-3,1,1,-1,-2,5,True,5,-7,-1.5,3.9279220242478625,3.968626966596886,-12.0
1940,-2,7,14,4,0,1,0,1,True,14,-2,3.125,5.19443383412888,5.777110004145672,25.0
1941,-1,5,1,1,1,-2,0,2,True,5,-2,0.875,2.100170061141308,2.1505813167606567,7.0
1942,-2,-14,-12,-5,-3,-2,-4,-5,True,-2,-14,-5.875,4.580626906564522,7.271519786124493,-47.0
1943,8,2,5,2,3,2,-2,-5,True,8,-5,1.875,3.9798600118956085,4.168333000133266,15.0
1944,3,-2,-7,-4,-3,-1,0,4,True,4,-7,-1.25,3.615443067098218,3.605551275463989,-10.0
1945,4,-5,-2,-2,-1,0,1,-1,True,4,-5,-0.75,2.6049403612586386,2.5495097567963922,-6.0
1946,-9,-6,-4,-3,-1,0,0,-3,True,0,-9,-3.25,3.1052950170405937,4.358898943540674,-26.0
1947,-4,7,8,1,0,0,-1,-18,True,8,-18,-0.875,8.007808689023483,7.541551564499178,-7.0
1948,-2,2,0,-2,-1,1,3,7,True,7,-2,1.0,3.0237157840738176,3.0,8.0
1949,-2,7,-3,1,-1,0,-1,4,True,7,-3,0.625,3.3354160160315836,3.181980515339464,5.0
1950,9,2,-4,-2,-1,-1,-1,0,True,9,-4,0.25,3.918819064098629,3.6742346141747673,2.0
1951,-3,-6,-7,-3,-4,-2,-1,0,True,0,-7,-3.25,2.3754698783308412,3.9370039370059056,-26.0
1952,-4,-9,-8,0,-1,-2,-2,-2,True,0,-9,-3.5,3.295017884191656,4.663689526544408,-28.0
1953,-1,8,6,1,-1,1,-1,-3,True,8,-3,1.25,3.8078865529319543,3.774917217635375,10.0
1954,-4,1,-6,-2,-1,0,0,6,True,6,-6,-0.75,3.575711717366808,3.427827300200522,-6.0
1955,0,1,2,-3,-2,-1,-4,-25,True,2,-25,-4.0,8.717797887081348,9.082951062292475,-32.0
1956,-1,-6,-3,-3,-3,-2,-1,6,True,6,-6,-1.625,3.461523198989551,3.6228441865473595,-13.0
1957,-8,3,0,0,0,-2,2,8,True,8,-8,0.375,4.533604683755678,4.257346591481601,3.0
1958,-2,-2,-1,1,2,1,-1,-3,True,2,-3,-0.625,1.7677669529663689,1.7677669529663689,-5.0
1959,-1,-8,2,0,-1,-1,-3,7,True,7,-8,-0.625,4.240535680446853,4.0155946010522525,-5.0
1960,-2,-1,1,0,0,-3,-1,0,True,1,-3,-0.75,1.2817398889233114,1.4142135623730951,-6.0
1961,-4,-2,0,0,-1,-1,0,1,True,1,-4,-0.875,1.5526475085202969,1.695582495781317,-7.0
1962,3,-3,-3,-1,0,-1,-1,3,True,3,-3,-0.375,2.326094212561969,2.207940216581962,-3.0
1963,3,1,3,-1,0,-1,-3,-19,True,3,-19,-2.125,7.120142454433659,6.991065727054782,-17.0
1964,-7,-1,-3,-4,-3,-3,-2,-2,True,-1,-7,-3.125,1.807721533549109,3.553167600887974,-25.0
1965,9,6,-6,-4,-1,-1,1,5,True,9,-6,1.125,5.166858675387645,4.962358310319802,9.0
1966,-5,-1,-6,-1,1,-1,0,1,True,1,-6,-1.5,2.6186146828319083,2.8722813232690143,-12.0
1967,-12,-5,-1,-1,-3,0,3,2,True,3,-12,-2.125,4.733995594179856,4.911720676097125,-17.0
1968,18,1,2,1,10,3,2,17,True,18,1,6.75,7.245688373094719,9.565563234854496,54.0
1969,1,17,2,-1,-1,-1,-1,2,True,17,-1,2.25,6.112048990080401,6.144102863722254,18.0
1970,-9,-5,-3,1,-7,-3,1,3,True,3,-9,-2.75,4.200340122282616,4.795831523312719,-22.0
1971,7,-1,-6,-1,0,1,1,3,True,7,-6,0.5,3.7032803990902057,3.5,4.0
1972,11,9,7,5,2,0,-3,-36,True,11,-36,-0.625,15.032702446903645,14.075688260259247,-5.0
1973,-3,-1,0,2,1,1,2,-5,True,2,-5,-0.375,2.5035688811888406,2.3717082451262845,-3.0
1974,5,-9,-5,-4,-1,1,-1,0,True,5,-9,-1.75,4.234214381508266,4.330127018922194,-14.0
1975,-11,-16,2,1,2,-1,3,4,True,4,-16,-2.0,7.367883976130073,7.176350047203662,-16.0
1976,-12,-3,-4,-3,-6,-5,-5,-3,True,-3,-12,-5.125,2.9970223317724636,5.841660722773962,-41.0
1977,-11,12,13,2,1,0,-1,5,True,13,-11,2.625,7.652030542840993,7.623975340988453,21.0
1978,11,-16,-13,-5,-1,-1,6,39,True,39,-16,2.5,17.23783214742669,16.31716887208072,20.0
1979,3,7,3,-1,-3,-4,-5,-28,True,7,-28,-3.5,10.717142476292029,10.618380290797651,-28.0
1980,-9,-3,8,3,-3,-1,-3,4,True,8,-9,-0.5,5.291502622129181,4.9749371855331,-4.0
1981,2,-2,-4,-2,-3,0,2,15,True,15,-4,1.0,6.07100838882165,5.766281297335398,8.0
1982,-3,-4,-1,4,4,2,-9,-36,True,4,-36,-5.375,13.135964807678628,13.411748581001659,-43.0
1983,4,-5,-5,-4,-2,-4,-7,-2,True,4,-7,-3.125,3.3139316313320126,4.401704215414752,-25.0
1984,2,18,6,1,-1,-2,-3,-17,True,18,-17,0.5,9.754120008635178,9.137833441248533,4.0
1985,1,-5,-9,0,-3,0,2,7,True,7,-9,-0.875,4.823676724538776,4.596194077712559,-7.0
1986,3,14,6,-1,0,-1,-1,2,True,14,-1,2.75,5.175491695067657,5.5677643628300215,22.0
1987,4,-11,-8,-4,-5,-3,1,6,True,6,-11,-2.5,5.830951894845301,6.0,-20.0
1988,1,0,-1,3,4,1,0,9,True,9,-1,2.125,3.2265638511757806,3.69120576505835,17.0
1989,-5,-3,-4,-2,0,0,-1,19,True,19,-5,0.5,7.690439333539868,7.211102550927978,4.0
1990,-1,-6,1,-7,-6,-1,2,9,True,9,-7,-1.125,5.330170192940773,5.111262075065218,-9.0
1991,7,-6,-1,2,-1,-1,1,4,True,7,-6,0.625,3.8890872965260113,3.69120576505835,5.0
1992,-9,-1,-2,0,1,1,3,15,True,15,-9,1.0,6.697547525560595,6.34428877022476,8.0
1993,-15,-11,6,0,-1,-1,-1,-12,True,6,-15,-4.375,7.327784697398564,8.131727983645296,-35.0
1994,3,-1,-5,-4,-2,-1,-2,-4,True,3,-5,-2.0,2.5071326821120348,3.082207001484488,-16.0
1995,11,1,2,3,1,1,-1,-1,True,11,-1,2.125,3.833592123769634,4.168333000133266,17.0
1996,-4,-4,-4,-3,-5,-2,-1,4,True,4,-5,-2.375,2.8753881725529062,3.588175023601831,-19.0
1997,18,0,-7,-5,-4,-4,-5,-42,True,18,-42,-6.125,16.55672068979845,16.65457894994647,-49.0
1998,-3,-1,0,2,12,2,1,3,True,12,-3,2.0,4.47213595499958,4.636809247747852,16.0
1999,-7,-1,3,-1,2,4,3,9,True,9,-7,1.5,4.6598589800857395,4.6097722286464435,12.0
2000,-6,-4,-5,-2,-4,-1,-3,-7,True,-1,-7,-4.0,2.0,4.415880433163924,-32.0
2001,-11,3,1,0,-3,-1,2,12,True,12,-11,0.375,6.41287766919033,6.010407640085654,3.0
2002,4,6,6,5,2,-2,-1,-7,True,6,-7,1.625,4.627171304989074,4.623310502226732,13.0
2003,-6,13,-6,-4,7,3,-6,-13,True,13,-13,-1.5,8.468428763016531,8.06225774829855,-12.0
2004,-3,-7,-1,0,10,3,2,0,True,10,-7,0.5,4.928053803045811,4.636809247747852,4.0
2005,1,12,2,5,-1,10,3,14,True,14,-1,5.75,5.548487567410986,7.745966692414834,46.0
2006,-4,12,10,2,-15,-6,-2,0,True,12,-15,-0.375,8.683934263092638,8.131727983645296,-3.0
2007,1,-3,0,-2,1,-4,-7,-7,True,1,-7,-2.625,3.2486260832190936,4.0155946010522525,-21.0
2008,-3,-8,-5,-3,-11,-1,6,11,True,11,-11,-1.75,7.186296483088987,6.946221994724902,-14.0
2009,-16,-4,4,0,-1,-3,1,10,True,10,-16,-1.125,7.453426824526516,7.0622234459127675,-9.0
2010,-1,12,8,-2,-2,-1,-2,-10,True,12,-10,0.25,6.777062153217383,6.34428877022476,2.0
2011,2,0,-4,0,-1,-1,-5,-14,True,2,-14,-2.875,5.02671434864337,5.5113519212621505,-23.0
2012,-11,-6,-6,-3,1,3,2,-9,True,3,-11,-3.625,5.2355242608275905,6.093028803476971,-29.0
2013,9,8,0,-1,15,3,3,21,True,21,-1,7.25,7.648529270389178,10.18577439373168,58.0
2014,2,-5,-4,-2,-2,0,3,5,True,5,-5,-0.375,3.50255009141299,3.29772648956823,-3.0
2015,10,-3,-5,-2,-8,-5,2,4,True,10,-8,-0.875,5.866064633612068,5.5565276927232174,-7.0
2016,-5,-2,1,2,4,2,1,3,True,4,-5,0.75,2.9154759474226504,2.8284271247461903,6.0
2017,-7,-14,-4,-3,-6,-3,5,3,True,5,-14,-3.625,5.902481318419036,6.604922406811453,-29.0
2018,10,-6,-5,-2,-6,-3,-6,1,True,10,-6,-2.125,5.488624600025037,5.5565276927232174,-17.0
2019,0,-7,0,-1,-2,-3,0,-3,True,0,-7,-2.0,2.390457218668787,3.0,-16.0
2020,-2,7,-2,-1,2,-2,-4,-3,True,7,-4,-0.625,3.543101950067402,3.3726843908080104,-5.0
2021,13,-3,-5,-2,-4,-2,-2,-14,True,13,-14,-2.375,7.386038953902926,7.305819598101229,-19.0
2022,-2,-9,-4,-2,1,-1,-2,-16,True,1,-16,-4.375,5.527528509973641,6.773108592072033,-35.0
2023,-2,2,0,1,2,0,-1,1,True,2,-2,0.375,1.4078859531733587,1.3693063937629153,3.0
2024,-1,1,-2,-2,-3,0,-1,-5,True,1,-5,-1.625,1.8468119248354136,2.3717082451262845,-13.0
2025,8,13,9,2,0,-1,-2,-2,True,13,-2,3.375,5.804862493757158,6.393355926272211,27.0
2026,-2,-7,-6,-2,-4,-1,-4,-1,True,-1,-7,-3.375,2.2638462845343543,3.984344362627307,-27.0
2027,-3,-3,-2,1,-1,0,-2,-12,True,1,-12,-2.75,3.9910614413425693,4.636809247747852,-22.0
2028,-3,-1,-1,-1,14,5,2,3,True,14,-3,2.25,5.4182232195751086,5.545268253204709,18.0
2029,-4,-7,1,1,-1,-1,1,6,True,6,-7,-0.5,3.854496446637726,3.640054944640259,-4.0
2030,-6,2,1,1,-6,-3,-1,0,True,2,-6,-1.5,3.1622776601683795,3.3166247903554,-12.0
2031,-1,-13,-10,-7,-2,-2,-3,-4,True,-1,-13,-5.25,4.334248987508019,6.6332495807108,-42.0
2032,1,-3,-1,-1,-3,-4,-3,-2,True,1,-4,-2.0,1.6035674514745462,2.5,-16.0
2033,2,3,0,1,1,1,-3,6,True,6,-3,1.375,2.5599944196367748,2.7613402542968153,11.0
2034,3,-2,-7,0,-3,0,-2,-2,True,3,-7,-1.625,2.8753881725529062,3.142451272494134,-13.0
2035,-4,-2,3,-2,-2,0,-1,-1,True,3,-4,-1.125,2.03100960115899,2.207940216581962,-9.0
2036,1,1,-3,-1,-2,0,0,7,True,7,-3,0.375,3.020761493398643,2.850438562747845,3.0
2037,-2,-2,-2,1,-7,-3,-5,-2,True,1,-7,-2.75,2.3754698783308412,3.5355339059327378,-22.0
2390,-6,5,6,6,32,4,-1,7,True,32,-6,6.625,11.160357137142674,12.364263018878239,53.0
2391,-7,-4,-11,-8,31,10,0,1,True,31,-11,1.5,13.596217961519404,12.806248474865697,12.0
2392,4,1,-3,-17,-1,-16,12,5,True,12,-17,-1.875,10.091545258992088,9.624188277460078,-15.0
2393,0,3,-1,-1,-13,-4,2,-5,True,3,-13,-2.375,5.069164484550543,5.303300858899107,-19.0
2394,-8,-3,-6,-5,-20,2,2,9,True,9,-20,-3.625,8.60128727907299,8.824681297361396,-29.0
2395,6,-1,0,-1,-4,-5,4,4,True,6,-5,0.375,3.9618718519695424,3.724916106437835,3.0
2396,0,4,12,20,17,2,0,10,True,20,0,8.125,7.790791267350741,10.914439976471536,65.0
2397,-6,-4,-3,-5,2,10,10,2,True,10,-6,0.75,6.4309519401985,6.06217782649107,6.0
2398,-7,0,-15,-9,-19,1,7,-4,True,7,-19,-5.75,8.598172563316663,9.886859966642595,-46.0
2399,3,-2,2,-2,-8,-7,1,9,True,9,-8,-0.5,5.529143565818179,5.196152422706632,-4.0
2400,-8,-17,-18,-10,-12,2,1,2,True,2,-18,-7.5,8.28078671210825,10.781929326423912,-60.0
2401,-6,2,-3,-13,9,-3,-7,-10,True,9,-13,-3.875,6.937218462755804,7.558108228915487,-31.0
2402,0,-7,-7,-17,-20,1,-10,-8,True,1,-20,-8.5,7.309485031694875,10.908712114635714,-68.0
2403,3,4,2,0,4,-4,-23,2,True,4,-23,-1.5,9.071147352221454,8.616843969807043,-12.0
2404,-9,-5,4,23,12,6,-2,-21,True,23,-21,1.0,13.458932243787288,12.62933094031509,8.0
2405,-7,-2,4,8,2,-2,10,-2,True,10,-7,1.375,5.730557190560593,5.533985905294664,11.0
2406,13,-2,-6,-10,-36,0,-4,2,True,13,-36,-5.375,14.111165791670084,14.252192813739224,-43.0
2407,-7,1,4,5,25,3,-4,-1,True,25,-7,3.25,9.691675367477567,9.630680142129112,26.0
2408,-2,-3,-11,-9,-1,-4,6,-12,True,6,-12,-4.5,5.976143046671968,7.176350047203662,-36.0
2409,8,1,10,-4,2,0,11,10,True,11,-4,4.75,5.67576300723398,7.123903424387503,38.0
2410,2,-7,-5,1,-8,-17,3,15,True,15,-17,-2.0,9.516902257112267,9.12414379544733,-16.0
2411,4,-4,-13,-9,-37,-5,-8,-7,True,4,-37,-9.875,12.00520720354297,14.95409642873818,-79.0
2412,11,2,-6,-10,-23,-15,-4,3,True,11,-23,-5.25,10.819955109492302,11.40175425099138,-42.0
2413,9,-3,-3,-1,-4,-1,5,-3,True,9,-4,-0.125,4.642582409453969,4.344536799245692,-1.0
2414,-5,1,4,9,6,4,5,-19,True,9,-19,0.625,8.927285621700953,8.374067112222113,5.0
2415,-5,13,13,2,0,-2,-1,11,True,13,-5,3.875,7.298483208369883,7.850159234053791,31.0
2416,-5,-3,3,2,17,9,2,3,True,17,-5,3.5,6.8868404532536855,7.33143914930759,28.0
2417,2,-8,0,21,26,10,4,3,True,26,-8,7.25,11.272596354497422,12.796483892069727,58.0
2418,-12,-24,-11,-26,-34,-9,-1,-2,True,-1,-34,-14.875,11.885615555908627,18.570810429273138,-119.0
2419,-1,28,-2,3,-13,-2,-3,0,True,28,-13,1.25,11.756457192295887,11.067971810589327,10.0
2420,-7,-1,-15,-15,-8,-4,-4,12,True,12,-15,-5.25,8.614771367499298,9.617692030835672,-42.0
2421,2,3,13,6,1,3,-1,1,True,13,-1,3.5,4.342481186734475,5.361902647381804,28.0
2422,-3,11,-3,-4,-6,-4,1,8,True,11,-6,0.0,6.233549779791836,5.830951894845301,0.0
2423,-7,-6,-8,11,16,-7,6,2,True,16,-8,0.875,9.326421760629467,8.76783895837509,7.0
2424,3,-2,0,12,19,-2,-31,-12,True,19,-31,-1.625,15.146310253184248,14.260960696951662,-13.0
2425,-6,-4,3,-7,3,6,4,37,True,37,-7,4.5,14.030578849681962,13.874436925511608,36.0
2426,1,-2,2,43,44,12,13,0,True,44,-2,14.125,18.939282683655907,22.6577801207444,113.0
2427,1,3,2,19,10,3,-3,16,True,19,-3,6.375,7.781617532915083,9.676001240181813,51.0
2428,-3,1,4,-17,-2,-10,-5,-8,True,4,-17,-5.0,6.6332495807108,7.968688725254614,-40.0
2429,-8,-12,-7,-8,-16,5,-24,1,True,5,-24,-8.625,9.132946637625464,12.139810542178983,-69.0
2430,1,2,8,-8,-1,0,5,-9,True,8,-9,-0.25,5.849297882163783,5.477225575051661,-2.0
2431,0,-6,-10,-15,2,-1,5,-6,True,5,-15,-3.875,6.62112420320641,7.305819598101229,-31.0
2432,0,-3,-9,-24,-44,-6,1,9,True,9,-44,-9.5,16.894631438080303,18.439088914585774,-76.0
2433,0,-6,0,10,-55,-8,4,-21,True,10,-55,-9.5,20.56349053193895,21.453437952924933,-76.0
2434,8,-1,1,-12,-14,-7,4,-26,True,8,-26,-5.875,11.153955096095478,11.973930014828047,-47.0
2435,0,2,-6,-2,-4,-5,-5,-27,True,2,-27,-5.875,8.967202143685302,10.240849574132021,-47.0
2436,-3,14,9,11,27,-6,5,11,True,27,-6,8.5,10.281745265969475,12.835497652993435,68.0
2437,8,-7,-7,-9,0,0,-1,-7,True,8,-9,-2.875,5.693040864574423,6.051859218455102,-23.0
2438,-3,1,-3,-10,20,2,-17,21,True,21,-17,1.375,13.298093311233972,12.514991010783827,11.0
2439,-2,2,-1,-8,6,5,7,0,True,7,-8,1.125,4.969550137731641,4.782781617427248,9.0
2440,15,-13,-7,-12,-27,1,3,-13,True,15,-27,-6.625,12.783220028056869,13.670223114492316,-53.0
2441,-1,-11,-3,-8,-35,-8,-3,4,True,4,-35,-8.125,11.837440601751714,13.734081694820372,-65.0
2442,-3,9,4,1,-11,3,5,10,True,10,-11,2.25,6.777062153217383,6.726812023536855,18.0
2443,9,-21,-10,-2,23,6,-7,-35,True,23,-35,-4.625,18.10238737215146,17.553489681541958,-37.0
2444,-5,-8,2,6,-47,-6,4,4,True,6,-47,-6.25,17.29368175292435,17.342145196024624,-50.0
2445,-10,5,-4,-12,-5,-7,-2,28,True,28,-12,-0.875,12.766445975961473,11.973930014828047,-7.0
2446,-7,2,9,6,7,-3,7,-6,True,9,-7,1.875,6.379375249303694,6.254998001598402,15.0
2447,1,7,7,0,2,4,4,-3,True,7,-3,2.75,3.4537764010675946,4.242640687119285,22.0
2448,0,-7,-1,-1,-2,2,4,-10,True,4,-10,-1.875,4.580626906564522,4.677071733467427,-15.0
2449,2,4,1,17,39,3,4,-3,True,39,-3,8.375,13.647998283369512,15.26843148460247,67.0
2450,-6,-10,-4,-3,1,-1,-4,11,True,11,-10,-2.0,6.187545093630776,6.123724356957945,-16.0
2451,9,9,1,-4,-10,-1,-6,1,True,9,-10,-0.125,6.728139203587953,6.294839156007086,-1.0
2452,0,2,-8,1,14,1,-4,6,True,14,-8,1.5,6.546536707079771,6.304760106459246,12.0
2453,-4,-8,6,3,30,17,14,-3,True,30,-8,6.875,12.766445975961473,13.77951377952067,55.0
2454,-5,-8,-7,-15,-21,0,2,4,True,4,-21,-6.25,8.548182764273854,10.14889156509222,-50.0
2455,-11,1,0,2,-5,-9,-6,-2,True,2,-11,-3.75,4.77343841331532,5.830951894845301,-30.0
2456,-1,23,25,7,22,3,3,11,True,25,-1,11.625,10.32247893815102,15.112081259707413,93.0
2457,-6,2,1,-5,-9,4,0,-41,True,4,-41,-6.75,14.538127212854578,15.182226450688976,-54.0
2458,-15,4,5,8,12,16,8,24,True,24,-15,7.75,11.272596354497422,13.0862523283024,62.0
2459,-6,2,4,3,-1,-5,11,18,True,18,-6,3.25,8.031189202104505,8.18535277187245,26.0
2460,3,9,-17,-7,-3,-10,-6,-18,True,9,-18,-6.125,9.234059624177068,10.588909292273685,-49.0
2461,-3,-4,1,0,-2,6,-7,4,True,6,-7,-0.625,4.274091382136927,4.046603514059662,-5.0
2462,-1,-15,-11,-3,2,10,-25,-1,True,10,-25,-5.5,10.980502200328935,11.651180197731044,-44.0
2463,-9,-11,-2,-5,2,-5,2,-1,True,2,-11,-3.625,4.779046527738113,5.755432216610669,-29.0
2464,11,3,5,4,-5,-2,-1,-23,True,11,-23,-1.0,10.155927192672127,9.5524865872714,-8.0
2465,5,0,-1,0,-12,-5,-1,7,True,7,-12,-0.875,5.841660722773962,5.533985905294664,-7.0
2466,4,0,-3,-4,-5,-24,-8,-7,True,4,-24,-5.875,8.271076972541984,9.714679613862724,-47.0
2467,7,0,-4,-4,-2,4,8,16,True,16,-4,3.125,6.998724373565718,7.254309064273454,25.0
2468,-11,-7,-3,-9,7,6,33,0,True,33,-11,2.0,14.152233544063435,13.388427838995884,16.0
2469,9,12,4,-3,-66,-21,-8,-12,True,12,-66,-10.625,24.933841031245638,25.629572762728607,-85.0
2470,-4,-9,-3,1,-5,-6,0,3,True,3,-9,-2.875,3.9798600118956085,4.703721930556695,-23.0
2600,13,9,10,-3,-3,-2,-2,-10,True,13,-10,1.5,8.088792952509753,7.713624310270756,12.0
2601,3,-11,-5,-3,-6,-2,0,5,True,5,-11,-2.375,5.125217765408329,5.350233639758174,-19.0
2602,-3,-3,-5,-1,-12,-4,-1,6,True,6,-12,-2.875,4.9982139667227985,5.488624600025037,-23.0
2603,-5,-10,0,0,-33,1,-2,-8,True,1,-33,-7.125,11.192312412672242,12.66392514191394,-57.0
2604,2,4,2,-1,-10,0,-1,-1,True,4,-10,-0.625,4.2067123233504535,3.984344362627307,-5.0
2605,-12,-1,-4,9,33,6,0,0,True,33,-12,3.875,13.346347815039138,13.071916462401372,31.0
2606,-5,5,15,12,1,0,1,2,True,15,-5,3.875,6.599512969043354,7.2886898685566255,31.0
2607,-2,-9,0,-6,-4,-1,1,12,True,12,-9,-1.125,6.243568119044018,5.947688626685159,-9.0
2608,-5,-11,-14,-6,5,-1,-2,0,True,5,-14,-4.25,6.1353775061406886,7.14142842854285,-34.0
2609,6,14,0,-4,-2,-6,-4,2,True,14,-6,0.75,6.584614100852293,6.2048368229954285,6.0
2610,-13,-9,-5,-6,-7,-1,-1,1,True,1,-13,-5.125,4.6732521560777895,6.73609679265374,-41.0
2611,-4,-13,-6,8,-5,0,-2,-16,True,8,-16,-4.75,7.459413994601529,8.440971508067067,-38.0
2612,5,3,0,-2,3,-3,-3,-7,True,5,-7,-0.5,4.0,3.774917217635375,-4.0
2613,1,-9,-4,-2,3,-1,-5,-7,True,3,-9,-3.0,4.035556254807296,4.8218253804964775,-24.0
2614,0,1,4,0,3,3,-1,0,True,4,-1,1.25,1.8322507626258084,2.1213203435596424,10.0
2615,11,9,1,-3,2,-2,-3,-15,True,11,-15,0.0,8.053393251117372,7.533259586659682,0.0
2616,0,12,0,-1,1,-1,-1,2,True,12,-1,1.5,4.375255094603872,4.358898943540674,12.0
2617,-21,1,7,-2,0,-3,2,5,True,7,-21,-1.375,8.60128727907299,8.162413858657255,-11.0
2618,0,-11,-6,-6,9,1,-1,-4,True,9,-11,-2.25,5.994044663544927,6.041522986797286,-18.0
2619,11,33,10,-2,-1,-1,0,7,True,33,-2,7.125,11.703937066523507,13.062350477613132,57.0
2620,3,6,1,3,2,1,-1,0,True,6,-1,1.875,2.1671244937540095,2.7613402542968153,15.0
2621,-1,-5,-4,-4,4,0,-1,2,True,4,-5,-1.125,3.1367635732209265,3.142451272494134,-9.0
2622,7,18,9,3,-1,-2,-1,3,True,18,-2,4.5,6.718843437888483,7.729812416870153,36.0
2623,11,-3,-9,-3,-12,-3,-4,-15,True,11,-15,-4.75,7.869470848066687,8.760707733967616,-38.0
2624,-3,-7,-10,-6,-4,-3,-2,3,True,3,-10,-4.0,3.854496446637726,5.385164807134504,-32.0
2625,5,-30,-11,-3,-4,0,2,8,True,8,-30,-4.125,11.96945517318383,11.932099563781724,-33.0
2626,-4,-11,-3,0,-2,0,-1,-8,True,0,-11,-3.625,3.9618718519695424,5.18411033833193,-29.0
2627,1,-9,-7,-5,1,-1,1,5,True,5,-9,-1.75,4.77343841331532,4.795831523312719,-14.0
2628,-14,-11,-4,-2,0,-2,-1,2,True,2,-14,-4.0,5.5805785670356025,6.576473218982953,-32.0
2629,-16,23,17,4,2,-1,-1,-4,True,23,-16,3.0,12.18898800440088,11.789826122551595,24.0
2630,10,10,-2,3,7,0,0,1,True,10,-2,3.625,4.749060057376767,5.733672470589857,29.0
2631,7,-2,-15,-3,-2,-1,-1,10,True,10,-15,-0.875,7.434235478033846,7.0089228844380935,-7.0
2632,2,-8,7,7,-7,3,-3,-9,True,7,-9,-1.0,6.611677980232077,6.264982043070834,-8.0
2633,-9,-14,-8,-10,-6,-2,0,5,True,5,-14,-5.5,6.141195788629908,7.952986860293433,-44.0
2634,0,-9,-12,-8,5,-6,1,1,True,5,-12,-3.5,6.023762469230862,6.6332495807108,-28.0
2635,4,-1,-7,13,12,1,-2,-6,True,13,-7,1.75,7.516648189186454,7.245688373094719,14.0
2636,16,-18,4,-3,-15,2,0,-1,True,16,-18,-1.875,10.736286934636999,10.216408370851275,-15.0
2637,-3,-13,-1,-4,0,-4,1,-2,True,1,-13,-3.25,4.334248987508019,5.196152422706632,-26.0
2638,3,11,5,7,12,1,-1,1,True,12,-1,4.875,4.793969425970806,6.623820649745885,39.0
2639,-1,-2,-2,-2,-15,0,0,-1,True,0,-15,-2.875,4.969550137731641,5.465802777268862,-23.0
2640,1,10,4,-3,-2,-2,-4,-26,True,10,-26,-2.75,10.457396562105831,10.161200716450788,-22.0
2641,3,8,-1,0,-3,0,1,-1,True,8,-3,0.875,3.3567628964311944,3.2596012026013246,7.0
2642,-2,14,6,7,30,3,0,9,True,30,-2,8.375,10.098620839359345,12.624381172952598,67.0
2643,-4,-7,5,6,7,2,-1,0,True,7,-7,1.0,4.956957592256421,4.743416490252569,8.0
2644,1,1,4,-4,17,8,3,2,True,17,-4,4.0,6.233549779791836,7.0710678118654755,32.0
2645,-4,-19,-2,-6,0,-5,0,1,True,1,-19,-4.375,6.435115716575289,7.441438033068608,-35.0
2646,1,3,5,1,-16,-3,0,1,True,5,-16,-1.0,6.48074069840786,6.144102863722254,-8.0
2647,1,1,-2,-3,0,0,-2,-6,True,1,-6,-1.375,2.38671920665766,2.622022120425379,-11.0
2648,-19,-16,-5,-8,-14,-4,-1,-3,True,-1,-19,-8.75,6.713525792862389,10.770329614269007,-70.0
2649,14,8,9,2,1,1,-2,-17,True,14,-17,2.0,9.319717960171479,8.94427190999916,16.0
2650,-7,2,-3,-4,-13,-1,0,5,True,5,-13,-2.625,5.578978401105349,5.841660722773962,-21.0
2651,-4,23,12,3,2,2,0,12,True,23,-4,6.25,8.762745818846641,10.307764064044152,50.0
2652,-1,-8,0,4,1,5,0,-1,True,5,-8,0.0,3.9279220242478625,3.6742346141747673,0.0
2653,-17,-15,-7,-1,14,-4,-4,3,True,14,-17,-3.875,9.862446813182677,10.00624804809475,-31.0
2654,-1,-1,-3,2,-9,-6,-2,11,True,11,-9,-1.125,5.938674695827103,5.667892024377317,-9.0
2655,3,23,3,-5,-6,-1,0,4,True,23,-6,2.625,9.022788609167028,8.838834764831844,21.0
2656,3,-2,-9,4,11,-5,-4,-19,True,11,-19,-2.625,9.085899593797603,8.895223437328598,-21.0
2657,8,4,-3,-1,-7,-3,-2,4,True,8,-7,0.0,4.898979485566356,4.58257569495584,0.0
2658,-5,2,-3,-5,0,-1,1,5,True,5,-5,-0.75,3.494894235064305,3.3541019662496847,-6.0
2659,-9,-8,-7,-6,-8,0,-1,-10,True,0,-10,-6.125,3.6815175442433286,7.026734661277598,-49.0
2660,17,8,13,-3,-5,-1,-1,6,True,17,-5,4.25,8.013381665332416,8.616843969807043,34.0
2661,-4,-16,-10,0,0,-1,-1,-1,True,0,-16,-4.125,5.841660722773962,6.846531968814577,-33.0
2662,-25,6,-4,1,-4,-2,-2,0,True,6,-25,-3.75,9.176834188013082,9.367496997597597,-30.0
2663,17,-3,3,5,0,0,1,4,True,17,-3,3.375,6.06953752062591,6.604922406811453,27.0
2664,8,-4,-10,-3,0,-1,-3,-7,True,8,-10,-2.5,5.31843156256751,5.5677643628300215,-20.0
2665,-12,0,5,1,5,0,-2,-3,True,5,-12,-0.75,5.391792704790177,5.0990195135927845,-6.0
2666,0,-10,-5,-3,-10,-4,-1,2,True,2,-10,-3.875,4.38951673226759,5.645794895318107,-31.0
2667,12,13,4,-1,-5,-3,0,3,True,13,-5,2.875,6.62112420320641,6.8282501418738315,23.0
2668,5,7,7,0,8,1,1,-3,True,8,-3,3.25,4.026696625558686,4.9749371855331,26.0
2669,2,-2,-11,-9,-3,-1,1,2,True,2,-11,-2.625,4.926241685388278,5.303300858899107,-21.0
2670,-5,2,3,0,-1,-1,-2,5,True,5,-5,0.125,3.1367635732209265,2.9368350311176825,1.0
2671,-5,-14,-1,3,-4,-4,-4,-14,True,3,-14,-5.375,5.902481318419036,7.705517503711221,-43.0
2672,0,0,0,-1,1,0,-2,5,True,5,-2,0.375,2.0658792662827956,1.9685019685029528,3.0
2673,-5,-5,-10,-6,-8,-1,-1,3,True,3,-10,-4.125,4.223657859520076,5.7118298293979315,-33.0
2674,9,3,0,3,-13,-7,-1,0,True,9,-13,-0.75,6.692212958783834,6.304760106459246,-6.0
2675,6,-2,-1,5,-10,3,0,4,True,6,-10,0.625,5.180664601601392,4.886205071423016,5.0
2676,-12,-12,-5,-2,1,-1,-1,-1,True,1,-12,-4.125,5.139135558215436,6.334429729659964,-33.0
2677,-4,-1,-1,13,32,2,3,3,True,32,-4,5.875,11.69172479027062,12.414709017935136,47.0
2678,-7,-26,-5,1,9,4,-1,-9,True,9,-26,-4.25,10.593124454771864,10.781929326423912,-34.0
2679,7,14,4,-7,-12,-2,2,4,True,14,-12,1.25,8.154753215150045,7.729812416870153,10.0
2680,-6,4,3,0,5,-2,0,2,True,5,-6,0.75,3.575711717366808,3.427827300200522,6.0
2681,-6,7,6,-3,-6,2,4,12,True,12,-6,2.0,6.524678426668135,6.422616289332565,16.0
2682,-1,3,1,-2,-3,2,1,3,True,3,-3,0.5,2.2677868380553634,2.179449471770337,4.0
2683,-1,1,3,-5,-15,-2,-4,0,True,3,-15,-2.875,5.540435774506241,5.926634795564849,-23.0
2684,2,10,11,0,-1,4,-1,-2,True,11,-2,2.875,5.083235752381126,5.5565276927232174,23.0
2685,7,2,2,-1,2,-2,-2,-26,True,7,-26,-2.25,10.03920884759921,9.656603957913983,-18.0
2686,0,-15,-9,0,0,-4,-4,-5,True,0,-15,-4.625,5.2355242608275905,6.73609679265374,-37.0
2687,-7,-16,-7,-6,-4,-2,-2,10,True,10,-16,-4.25,7.265377779972235,8.0156097709407,-34.0
3060,-2,-2,-2,1,-1,-5,-15,-2,True,1,-15,-3.5,4.928053803045811,5.787918451395113,-28.0
3061,2,8,8,3,3,-3,3,12,True,12,-3,4.5,4.6291004988627575,6.244997998398398,36.0
3062,4,1,3,11,3,-1,5,-4,True,11,-4,2.75,4.432026302139591,4.9749371855331,22.0
3063,-16,-9,-2,-4,-4,-8,-9,-14,True,-2,-16,-8.25,4.920801328471382,9.447221813845593,-66.0
3064,11,-2,-2,-3,-5,-1,3,7,True,11,-5,1.0,5.529143565818179,5.267826876426369,8.0
3065,8,8,9,9,9,5,9,33,True,33,5,11.25,8.892211680534183,13.991068579633222,90.0
3066,-1,-2,-5,-3,-1,-1,-1,21,True,21,-5,0.875,8.253787009609589,7.770135133960027,7.0
3067,14,9,13,4,3,0,2,-1,True,14,-1,5.5,5.781744669956589,7.713624310270756,44.0
3068,12,-4,-5,-7,-1,-31,-12,-21,True,12,-31,-8.625,13.015787117409161,14.920623311376774,-69.0
3069,7,-11,-13,-5,-5,-17,-11,-15,True,7,-17,-8.75,7.667184247539268,11.313708498984761,-70.0
3070,-14,-1,2,0,0,2,-2,-14,True,2,-14,-3.375,6.696214282285605,7.115124735378854,-27.0
3071,2,-1,-4,3,10,1,3,5,True,10,-4,2.375,4.138236339311712,4.541475531146237,19.0
3072,-17,-2,-2,-8,-14,7,-2,9,True,9,-17,-3.625,9.148575220843329,9.293815147720553,-29.0
3073,-6,-3,-1,5,13,-5,10,3,True,13,-6,2.0,6.98978847012861,6.837397165588672,16.0
3074,8,1,-3,-3,-13,-11,-14,-1,True,8,-14,-4.5,7.634508123364221,8.440971508067067,-36.0
3075,-7,-4,-6,-2,3,2,3,2,True,3,-7,-1.125,4.155461122770509,4.046603514059662,-9.0
3076,7,0,-1,-2,2,3,-3,-9,True,7,-9,-0.375,4.718883039751796,4.430011286667337,-3.0
3077,16,-1,8,-1,-2,-5,-11,-3,True,16,-11,0.125,8.288330867637256,7.754031209635412,1.0
3078,2,-1,0,-1,3,3,3,4,True,4,-1,1.625,1.9955307206712847,2.4748737341529163,13.0
3079,-4,-1,-9,-4,-1,-1,1,-2,True,1,-9,-2.625,3.0676887530703443,3.8890872965260113,-21.0
3080,11,2,-3,-6,-2,2,3,15,True,15,-6,2.75,7.086203900134804,7.176350047203662,22.0
3081,1,3,4,0,0,5,1,4,True,5,0,2.25,1.9820624179302297,2.9154759474226504,18.0
3082,-16,-3,-4,-4,-7,6,3,24,True,24,-16,-0.125,11.75265927354316,10.994316713648011,-1.0
3083,-7,8,3,11,14,2,4,7,True,14,-7,5.25,6.408699444616557,7.968688725254614,42.0
3084,5,-3,-3,-5,-3,0,5,-6,True,5,-6,-1.25,4.234214381508266,4.153311931459037,-10.0
3085,1,8,3,1,0,4,-1,6,True,8,-1,2.75,3.1052950170405937,4.0,22.0
3086,-4,6,3,-1,-6,-16,-1,1,True,6,-16,-2.25,6.713525792862389,6.670832032063167,-18.0
3087,-10,-1,-5,-3,7,0,7,-2,True,7,-10,-0.875,5.743008171432708,5.44288526426931,-7.0
3088,-16,-10,6,0,4,6,-5,-29,True,6,-29,-5.5,12.351980754981305,12.796483892069727,-44.0
3089,4,6,-6,-13,-31,-4,1,-3,True,6,-31,-5.75,11.829140773047357,12.469963913339926,-46.0
3090,4,6,-3,12,7,5,-15,-2,True,12,-15,1.75,8.310922245541018,7.968688725254614,14.0
3091,26,2,5,0,-7,2,0,-5,True,26,-7,2.875,10.119817897853414,9.89317946870469,23.0
3092,13,11,-1,-2,-2,-1,-5,-17,True,13,-17,-0.5,9.350324669687755,8.760707733967616,-4.0
3093,0,-9,-6,0,14,0,-3,4,True,14,-9,0.0,6.948792289723034,6.5,0.0
3094,15,8,7,-1,0,-1,8,-3,True,15,-3,4.125,6.289163014946538,7.185053931599957,33.0
3095,12,0,3,1,-8,-2,-9,36,True,36,-9,4.125,14.456214679408397,14.137715515598693,33.0
3096,-7,-12,-10,-5,-10,-1,4,0,True,4,-12,-5.125,5.667892024377317,7.3739406018763125,-41.0
3097,24,0,-5,0,0,-1,1,-18,True,24,-18,0.125,11.506985456048612,10.764525070805492,1.0
3098,7,5,1,13,13,3,-8,13,True,13,-8,5.875,7.3569694847810805,9.048480535426929,47.0
3099,-11,-6,3,-1,1,-3,5,1,True,5,-11,-1.375,5.180664601601392,5.0373604199024715,-11.0
3100,6,-17,-8,-7,-4,-1,5,-6,True,6,-17,-4.0,7.445036697597361,8.031189202104505,-32.0
3101,4,0,-5,-1,5,1,0,13,True,13,-5,2.125,5.356904756613521,5.44288526426931,17.0
3102,21,-19,-19,-8,-9,-6,-12,-43,True,21,-43,-11.875,17.763827611992056,20.423638265500102,-95.0
3103,-20,16,28,6,0,-2,2,7,True,28,-20,4.625,13.948246177515344,13.842868199907128,37.0
3104,-14,11,3,0,2,1,2,-6,True,11,-14,-0.125,7.278883352351709,6.809919235938118,-1.0
3105,-13,-15,-14,-6,-2,0,-5,-23,True,0,-23,-9.75,7.7781745930520225,12.165525060596439,-78.0
3106,-9,-5,1,-5,-7,1,-7,-9,True,1,-9,-5.0,4.0,6.244997998398398,-40.0
3107,-6,-6,-3,0,23,5,-1,2,True,23,-6,1.75,9.37702359112802,8.94427190999916,14.0
3108,-29,-9,2,-2,-8,-4,-2,2,True,2,-29,-6.25,10.03920884759921,11.280514172678478,-50.0
3109,6,2,-4,-2,-1,-1,-1,3,True,6,-4,0.25,3.1959796173138706,3.0,2.0
3110,-7,0,-3,-2,1,-1,0,-3,True,1,-7,-1.875,2.5319388392523003,3.020761493398643,-15.0
3111,18,4,6,2,-2,-1,-8,-32,True,18,-32,-1.625,14.40176080504444,13.56926674511191,-13.0
3112,-2,6,-2,-6,-6,-2,-4,-35,True,6,-35,-6.375,12.16479111440648,13.043197460745581,-51.0
3113,18,-14,-16,-3,25,-2,-3,-16,True,25,-16,-1.375,15.417406674646308,14.48706319445042,-11.0
3114,-13,-18,-1,0,7,-4,3,22,True,22,-18,-0.5,12.24744871391589,11.467344941179714,-4.0
3115,-1,-1,-6,-4,4,1,3,-3,True,4,-6,-0.875,3.440826312717007,3.3354160160315836,-7.0
3116,21,13,1,1,-6,-3,-4,6,True,21,-6,3.625,9.28804915700047,9.414085191881366,29.0
3117,-13,-1,2,-4,-17,-2,7,23,True,23,-17,-0.625,12.293290853144248,11.51629280628102,-5.0
3118,-28,-7,-5,3,2,2,1,5,True,5,-28,-3.375,10.756227432117107,10.612492638395562,-27.0
3119,18,1,3,3,-5,6,-10,-38,True,18,-38,-2.75,16.420805617960927,15.604486534327235,-22.0
3120,-13,-7,-4,0,2,2,-2,-3,True,2,-13,-3.125,5.02671434864337,5.645794895318107,-25.0
3121,-9,-4,-5,1,-3,-5,2,28,True,28,-9,0.625,11.599722903094342,10.868532559642079,5.0
3122,-3,-16,-1,4,3,-2,2,-2,True,4,-16,-1.875,6.266407036161723,6.154266812545585,-15.0
3123,-6,-5,-6,-11,-14,-4,-4,9,True,9,-14,-5.125,6.728139203587953,8.116341540373963,-41.0
3124,9,4,-2,-1,-6,1,0,-33,True,9,-33,-3.5,12.705454396776663,12.389511693363866,-28.0
3125,16,8,3,0,-9,-13,-3,8,True,16,-13,1.25,9.558093055476226,9.027735042633894,10.0
3126,-14,-13,-5,-6,-2,-2,1,12,True,12,-14,-3.625,8.227783940492639,8.507349763586777,-29.0
3127,-2,-2,-10,-6,6,-4,5,40,True,40,-10,3.375,15.72020992226249,15.087246269614612,27.0
3128,-10,4,0,-2,-4,10,-15,-2,True,10,-15,-2.375,7.74481393302272,7.623975340988453,-19.0
3129,19,3,3,3,5,5,-1,-23,True,19,-23,1.75,11.609724987514316,11.0,14.0
3130,-13,-2,-1,4,0,3,15,46,True,46,-13,6.5,17.736161607614783,17.81852968120546,52.0
3131,-3,-10,-10,-5,-5,-6,-3,-6,True,-3,-10,-6.0,2.7255405754769875,6.519202405202649,-48.0
3132,1,-9,10,-2,-2,0,-5,-6,True,10,-9,-1.625,5.730557190560593,5.60133912560202,-13.0
3133,-4,12,7,1,-5,-2,3,1,True,12,-5,1.625,5.7055737159878515,5.578978401105349,13.0
3134,-9,27,-1,-3,-7,-5,1,-14,True,27,-14,-1.375,12.397436370936878,11.677970714126662,-11.0
3135,2,-4,-9,-3,-15,-6,-2,3,True,3,-15,-4.25,5.849297882163783,6.928203230275509,-34.0
3136,-4,-10,2,11,15,4,-1,7,True,15,-10,3.0,8.106434833777776,8.154753215150045,24.0
3137,1,3,4,-11,2,2,5,-16,True,5,-16,-1.25,7.7781745930520225,7.3824115301167,-10.0
3138,-6,-9,-4,0,-8,4,-3,13,True,13,-9,-1.625,7.269063606427289,6.991065727054782,-13.0
3139,17,-4,-3,-2,1,0,8,4,True,17,-4,2.625,7.0089228844380935,7.0622234459127675,21.0
3140,13,-13,5,2,5,4,3,1,True,13,-13,2.5,7.250615737399726,7.22841614740048,20.0
3141,-22,-3,-6,-8,-6,-4,1,28,True,28,-22,-2.5,14.040757000349274,13.369741957120938,-20.0
3142,-23,9,2,5,4,1,1,-33,True,9,-33,-4.25,15.12566409403945,14.773286702694158,-34.0
3143,17,1,-10,-2,-8,-2,-2,-12,True,17,-12,-2.25,9.019819447036777,8.73212459828649,-18.0
3144,-14,-21,-16,-28,-8,-6,1,2,True,2,-28,-11.25,10.484682705192915,14.9248115565993,-90.0
3145,-12,0,3,-4,20,12,-6,-12,True,20,-12,0.125,11.293961724238816,10.565273304557719,1.0
3146,-2,8,4,3,35,19,-2,5,True,35,-2,8.75,12.509996003196804,14.611639196202457,70.0
3147,-2,-3,1,5,-12,-11,-3,-2,True,5,-12,-3.375,5.680480361981471,6.294839156007086,-27.0
3363,-1,14,7,7,3,-5,1,3,True,14,-5,3.625,5.7802001942592165,6.509608283145768,29.0
3364,-2,-1,1,2,10,8,4,20,True,20,-2,5.25,7.265377779972235,8.587782018658833,42.0
3365,0,7,3,7,6,3,0,-3,True,7,-3,2.875,3.6815175442433286,4.4860896112315904,23.0
3366,9,-13,-17,-8,-10,-8,-16,-42,True,9,-42,-13.125,14.186890326736764,18.66480645493009,-105.0
3367,0,3,14,10,14,4,-1,12,True,14,-1,7.0,6.2105900340811875,9.096702699330127,56.0
3368,-8,-5,-3,-9,7,-5,0,15,True,15,-9,-1.0,8.194074514114277,7.729812416870153,-8.0
3369,5,-3,-8,5,21,-2,-8,-11,True,21,-11,-0.125,10.370803798576627,9.701803955966128,-1.0
3370,4,1,2,-2,-6,0,4,15,True,15,-6,2.25,6.112048990080401,6.144102863722254,18.0
3371,-6,4,1,0,1,11,3,4,True,11,-6,2.25,4.77343841331532,5.0,18.0
3372,0,-4,-1,-2,-8,0,1,5,True,5,-8,-1.125,3.7961446607992015,3.724916106437835,-9.0
3373,-6,2,-1,2,1,-4,0,3,True,3,-6,-0.375,3.1594529363709243,2.979093821953246,-3.0
3374,-3,-1,0,1,1,0,1,-1,True,1,-3,-0.25,1.3887301496588271,1.3228756555322954,-2.0
3375,-8,-5,-1,2,-2,-1,0,-15,True,2,-15,-3.75,5.496752287877426,6.363961030678928,-30.0
3376,-5,-3,0,-1,3,-7,-2,-10,True,3,-10,-3.125,4.120939559996343,4.962358310319802,-25.0
3377,0,-2,3,-3,-5,-1,1,18,True,18,-5,1.375,7.1501748230375455,6.8282501418738315,11.0
3378,-2,3,-2,0,5,0,1,6,True,6,-2,1.375,3.020761493398643,3.142451272494134,11.0
3379,0,1,0,1,-3,-3,2,8,True,8,-3,0.75,3.4537764010675946,3.3166247903554,6.0
3380,5,-12,-4,-1,-2,0,-1,-3,True,5,-12,-2.25,4.77343841331532,5.0,-18.0
3381,2,0,1,-3,-8,-2,2,4,True,4,-8,-0.5,3.779644730092272,3.570714214271425,-4.0
3382,0,-2,-4,1,-15,-5,-2,1,True,1,-15,-3.25,5.230405611149374,5.873670062235365,-26.0
3383,0,4,1,-2,25,17,5,21,True,25,-2,8.875,10.494045930907678,13.233480267866046,71.0
3384,-4,-4,-1,-1,2,-4,-4,-4,True,2,-4,-2.5,2.2677868380553634,3.278719262151,-20.0
3385,-8,-7,-1,-3,-23,-6,9,2,True,9,-23,-4.625,9.272655652893773,9.82980162566875,-37.0
3386,2,12,2,-1,-7,0,1,-8,True,12,-8,0.125,6.174544517614234,5.777110004145672,1.0
3387,0,10,7,4,2,-2,1,1,True,10,-2,2.875,3.9438016467073274,4.677071733467427,23.0
3388,-8,-8,-10,-4,1,-13,-10,-11,True,1,-13,-7.875,4.454131308603925,8.90926484060273,-63.0
3389,-1,7,1,4,6,1,-2,0,True,7,-2,2.0,3.295017884191656,3.6742346141747673,16.0
3390,7,-7,-2,-4,-4,1,-5,-21,True,7,-21,-4.375,7.998883850709601,8.667467911679857,-35.0
3391,-4,-3,-4,-3,-8,-2,-9,-4,True,-2,-9,-4.625,2.5035688811888406,5.18411033833193,-37.0
3392,-1,-3,-3,0,-4,-2,1,2,True,2,-4,-1.25,2.1213203435596424,2.345207879911715,-10.0
3393,-3,-8,-1,1,-9,-20,-12,-13,True,1,-20,-8.125,6.978282637685906,10.422331792837916,-65.0
3394,8,2,6,3,5,6,5,10,True,10,2,5.625,2.5599944196367748,6.113509630318742,45.0
3395,3,4,10,3,-4,1,2,18,True,18,-4,4.625,6.631903411324901,7.73789377027108,37.0
3396,-5,-2,1,-3,-2,-18,-5,2,True,2,-18,-4.0,6.187545093630776,7.035623639735144,-32.0
3397,6,-4,-6,-1,-1,2,-18,-1,True,6,-18,-2.875,7.100050301632678,7.237057413065064,-23.0
3398,2,3,2,-6,1,0,-1,1,True,3,-6,0.25,2.8157719063467175,2.6457513110645907,2.0
3399,1,16,14,5,3,7,10,8,True,16,1,8.0,5.18238775634773,9.354143466934854,64.0
3400,6,-4,-4,2,7,17,-2,-34,True,17,-34,-1.5,14.890073395194722,14.0089257261219,-12.0
3401,-6,-2,-2,-1,8,7,-2,4,True,8,-6,0.75,4.978525312350464,4.716990566028302,6.0
3402,-1,-7,-2,1,0,-28,-21,-8,True,1,-28,-8.25,10.68710838881527,12.96148139681572,-66.0
3403,-3,-8,-7,-5,1,-1,-2,1,True,1,-8,-3.0,3.4226138716316967,4.387482193696061,-24.0
3404,-9,20,24,8,7,11,6,19,True,24,-9,10.75,10.443726756834868,14.52583904633395,86.0
3405,10,1,0,2,3,-16,-11,16,True,16,-16,0.625,10.308630226313152,9.663074045043844,5.0
3406,-11,0,-9,-2,-3,6,14,-11,True,14,-11,-2.0,8.750510189207745,8.426149773176359,-16.0
3407,4,3,0,-1,-8,5,7,-13,True,7,-13,-0.375,6.885543862739841,6.45174395028197,-3.0
3408,0,0,-3,0,2,1,4,-10,True,4,-10,-0.75,4.234214381508266,4.031128874149275,-6.0
3409,-1,-5,-3,-3,-4,-3,-4,-20,True,-1,-20,-5.375,6.022280061808579,7.786205751198718,-43.0
3410,-1,-21,-24,-1,8,1,-3,-6,True,8,-24,-5.875,11.038083425771237,11.879604370516722,-47.0
3411,10,0,11,0,-2,7,-3,-34,True,11,-34,-1.375,14.262212811682284,13.411748581001659,-11.0
3412,13,8,-15,-10,-18,1,8,26,True,26,-18,1.625,15.127434868948724,14.243419533244115,13.0
3413,5,-8,-8,-1,-1,3,3,12,True,12,-8,0.625,6.696214282285605,6.294839156007086,5.0
3414,-6,-8,1,3,10,18,7,-1,True,18,-8,3.0,8.55235974119758,8.54400374531753,24.0
3415,9,0,-3,-6,-13,-8,-2,-22,True,9,-22,-5.625,9.210824377561744,10.289557813628338,-45.0
3416,2,-1,8,-7,-21,1,7,6,True,8,-21,-0.625,9.575825216211319,8.979142498033985,-5.0
3417,-3,-4,1,5,19,4,4,16,True,19,-4,5.25,8.276472678623424,9.354143466934854,42.0
3418,-3,-13,-6,10,-2,-4,-4,-15,True,10,-15,-4.625,7.595816517756901,8.477912478906585,-37.0
3419,6,7,-9,-1,2,3,-5,-21,True,7,-21,-2.25,9.300537618869138,8.986100377805714,-18.0
3420,-30,2,5,-3,-2,-3,4,18,True,18,-30,-1.125,13.527089223374807,12.703346015912501,-9.0
3421,1,21,19,9,0,10,9,8,True,21,0,9.625,7.44383733605956,11.879604370516722,77.0
3422,6,-3,3,4,21,-11,-8,-30,True,21,-30,-2.25,14.906853649053032,14.124446891825535,-18.0
3423,-18,-4,-4,-4,-1,5,0,10,True,10,-18,-2.0,8.159131606453506,7.88986691902975,-16.0
3424,-26,4,-6,-4,-11,-9,0,34,True,34,-26,-2.25,17.161002301730512,16.209565077447326,-18.0
3425,11,-6,-3,-2,28,19,8,15,True,28,-6,8.75,11.901380472149318,14.159802258506296,70.0
3426,1,-20,-17,-10,-8,-20,-16,-9,True,1,-20,-12.375,7.2296512462813265,14.102304776170454,-99.0
3427,-11,1,2,8,2,-19,2,10,True,10,-19,-0.625,9.679691553527341,9.076067430335673,-5.0
3428,10,1,2,7,43,21,10,5,True,43,1,12.375,13.855762081428175,17.919960937457425,99.0
3429,-6,-15,-8,-7,-12,-9,-5,2,True,2,-15,-7.5,5.0426750270636544,8.860022573334675,-60.0
3430,13,5,12,-6,-30,3,4,-9,True,13,-30,-1.0,14.0,13.133925536563698,-8.0
3431,-3,-13,-17,-4,-11,-4,-1,10,True,10,-17,-5.375,8.365533028871672,9.493418773023762,-43.0
3432,5,10,13,-5,-4,19,8,-3,True,19,-5,5.375,8.765802057671944,9.80433577556379,43.0
3433,-10,17,9,3,-5,-3,-5,-7,True,17,-10,-0.125,9.156379509079214,8.565920849505908,-1.0
3434,-1,0,-8,-3,1,-1,-2,0,True,1,-8,-1.75,2.8157719063467175,3.1622776601683795,-14.0
3435,-33,4,7,-1,-7,-8,-4,61,True,61,-33,2.375,26.618669602904113,25.012496876561524,19.0
3436,13,-29,-13,0,2,0,5,7,True,13,-29,-1.875,13.2496630684924,12.534951136721675,-15.0
3437,2,-10,1,-2,-12,-8,-4,-8,True,2,-12,-5.125,5.166858675387645,7.044501401802686,-41.0
3438,5,7,1,3,-10,-7,-10,-1,True,7,-10,-1.5,6.718843437888483,6.461423991660043,-12.0
3439,-3,6,2,6,6,-6,-11,-23,True,6,-23,-2.875,10.287822204640092,10.043654713300333,-23.0
3440,27,1,-6,5,6,-15,-32,-12,True,27,-32,-3.25,17.46629407090779,16.658331248957683,-26.0
3441,4,4,2,13,7,-5,-2,-16,True,13,-16,0.875,8.724964183307574,8.208227579691002,7.0
3442,-20,6,1,-3,3,4,3,5,True,6,-20,-0.125,8.492643875731515,7.945124291035352,-1.0
3443,6,-3,-4,-2,4,13,13,17,True,17,-4,5.5,8.159131606453506,9.40744386111339,44.0
3444,-1,-5,10,4,-6,-20,-12,4,True,10,-20,-3.25,9.662150012142373,9.604686356149273,-26.0
3445,3,4,-4,0,-14,11,18,-9,True,18,-14,1.125,10.370803798576627,9.766012492312305,9.0
3446,-5,11,4,-1,-2,4,3,-10,True,11,-10,0.5,6.436503043467891,6.041522986797286,4.0
3447,1,3,5,-2,20,9,1,12,True,20,-2,6.125,7.2197645390968255,9.117291264405235,49.0
3448,7,8,1,-8,-1,1,-4,-12,True,8,-12,-1.0,6.8868404532536855,6.519202405202649,-8.0
3449,12,-11,-4,-8,-21,-11,-13,-21,True,12,-21,-9.625,10.52802382758919,13.77043935392041,-77.0
3450,-9,-5,0,-6,0,-3,5,10,True,10,-9,-1.0,6.187545093630776,5.873670062235365,-8.0
3451,-15,3,-5,-3,-3,5,2,-14,True,5,-15,-3.75,7.459413994601529,7.92148975887743,-30.0
3452,-8,-8,-7,-2,-3,1,5,1,True,5,-8,-2.625,4.808846015417836,5.208166663999915,-21.0
3453,2,-1,-3,-5,3,-4,12,16,True,16,-5,2.5,7.690439333539868,7.615773105863909,20.0
3454,1,0,0,4,1,11,12,-1,True,12,-1,3.5,5.154748157905347,5.958187643906492,28.0
3455,3,-7,-5,0,8,1,-8,-9,True,8,-9,-2.125,6.057757718118856,6.051859218455102,-17.0
3456,15,5,-3,1,-6,-8,-6,-8,True,15,-8,-1.25,7.995534467974697,7.582875444051551,-10.0
3457,-6,-25,-15,-10,-13,-10,-2,5,True,5,-25,-9.5,8.960229588895269,12.668859459319927,-76.0
3458,-4,-11,-14,-7,-5,-6,-5,-19,True,-4,-19,-8.875,5.330170192940773,10.179636535751166,-71.0
3459,-3,0,-7,-4,-10,-8,-11,-14,True,0,-14,-7.125,4.611708700997618,8.329165624478842,-57.0
3460,0,4,3,3,-1,11,2,-1,True,11,-1,2.625,3.8890872965260113,4.4860896112315904,21.0
3461,-6,3,1,1,7,13,11,13,True,13,-6,5.375,6.802048010919736,8.329165624478842,43.0
3462,-13,5,3,2,6,-3,2,8,True,8,-13,1.25,6.627863262664025,6.324555320336759,10.0
3463,4,-3,-2,-1,-1,5,-3,8,True,8,-3,0.875,4.189698250300543,4.0155946010522525,7.0
3464,1,-11,-2,-3,2,-4,-3,-3,True,2,-11,-2.875,3.9074105418879577,4.650268809434569,-23.0
3465,11,30,14,-1,0,-3,-1,4,True,30,-3,6.75,11.209052464096024,12.469963913339926,54.0
3466,-10,-14,-20,-10,8,-1,2,2,True,8,-20,-5.375,9.545941546018392,10.422331792837916,-43.0
3467,-7,4,6,3,-6,-4,1,41,True,41,-7,4.75,15.415669208401468,15.182226450688976,38.0
3468,-2,7,4,0,-4,-17,-21,36,True,36,-21,0.375,17.361184126830587,16.24422974474321,3.0
3469,-11,-17,-3,-3,-9,-12,-12,-22,True,-3,-22,-11.125,6.446205971621712,12.654050734843764,-89.0
3470,-7,-5,4,-3,-26,-5,11,13,True,13,-26,-2.25,12.244532307465704,11.672617529928752,-18.0
3653,1,5,-1,2,-2,-1,-1,0,True,5,-2,0.375,2.2638462845343543,2.1505813167606567,3.0
3654,-8,-6,4,1,3,4,0,-3,True,4,-8,-0.625,4.596194077712559,4.344536799245692,-5.0
3655,-1,-5,-5,-3,-3,-2,-3,2,True,2,-5,-2.5,2.2677868380553634,3.278719262151,-20.0
3656,1,-2,2,-4,-9,-3,-3,-12,True,2,-12,-3.75,4.713203338949605,5.787918451395113,-30.0
3657,1,9,-6,-3,-1,-1,-2,-1,True,9,-6,-0.5,4.342481186734475,4.092676385936225,-4.0
3658,-4,3,9,0,1,1,-1,-3,True,9,-4,0.75,4.026696625558686,3.840572873934304,6.0
3659,-2,0,-7,-4,-4,-2,0,3,True,3,-7,-2.0,3.070597894314954,3.5,-16.0
3660,0,4,1,4,6,0,-1,-6,True,6,-6,1.0,3.7416573867739413,3.640054944640259,8.0
3661,-4,-19,-11,-1,-2,-4,-2,2,True,2,-19,-5.125,6.728139203587953,8.116341540373963,-41.0
3662,0,-6,6,-1,-2,0,1,-1,True,6,-6,-0.375,3.3354160160315836,3.142451272494134,-3.0
3663,-1,-2,-5,8,17,-1,-1,-3,True,17,-5,1.5,7.329003050503234,7.0178344238090995,12.0
3664,-2,4,3,0,-5,0,0,3,True,4,-5,0.375,2.9730936268953445,2.806243040080456,3.0
3665,0,0,-4,-2,-6,-1,1,-2,True,1,-6,-1.75,2.3145502494313788,2.7838821814150108,-14.0
3666,1,1,2,3,3,1,2,1,True,3,1,1.75,0.8864052604279183,1.9364916731037085,14.0
3667,0,-1,-3,-1,-3,1,0,2,True,2,-3,-0.625,1.7677669529663689,1.7677669529663689,-5.0
3668,4,6,-8,-6,-5,-3,-2,4,True,6,-8,-1.25,5.257647491307984,5.07444578254611,-10.0
3669,2,1,-4,-4,-2,0,0,-2,True,2,-4,-1.125,2.2320714274285347,2.3717082451262845,-9.0
3670,-3,0,-3,-1,0,0,-2,-10,True,0,-10,-2.375,3.3354160160315836,3.9210967853395307,-19.0
3671,2,3,2,4,8,2,-1,3,True,8,-1,2.875,2.5319388392523003,3.724916106437835,23.0
3672,0,-8,-8,-6,-11,-4,-1,1,True,1,-11,-4.625,4.34042460069124,6.154266812545585,-37.0
3673,3,-8,-6,-6,-12,-3,-5,-1,True,3,-12,-4.75,4.527692569068709,6.363961030678928,-38.0
3674,-1,1,4,1,-3,-2,-1,-2,True,4,-3,-0.375,2.2638462845343543,2.1505813167606567,-3.0
3675,-1,3,-6,-7,5,2,1,4,True,5,-7,0.125,4.4860896112315904,4.198213905936666,1.0
3676,0,15,22,6,4,2,-1,0,True,22,-1,6.0,8.263517065131182,9.785192895390463,48.0
3677,-4,-3,1,-2,5,5,0,-1,True,5,-4,0.125,3.399054490379851,3.181980515339464,1.0
3678,-4,-1,-4,-1,2,-1,-2,-2,True,2,-4,-1.625,1.922609833384967,2.4238399287081647,-13.0
3679,2,11,6,3,3,5,-1,-11,True,11,-11,2.25,6.386369413502032,6.383572667401852,18.0
3680,-7,-22,-5,-1,-7,-1,-3,-4,True,-1,-22,-6.25,6.777062153217383,8.902246907382429,-50.0
3681,6,-6,-10,3,2,-10,-6,-10,True,6,-10,-3.875,6.556076788533128,7.254309064273454,-31.0
3682,1,5,-1,-2,2,-2,-1,5,True,5,-2,0.875,2.900123150094541,2.850438562747845,7.0
3683,-4,-7,-1,-5,-11,-8,-2,-2,True,-1,-11,-5.0,3.4641016151377544,5.958187643906492,-40.0
3684,-2,-1,-3,0,-16,-8,-1,-2,True,0,-16,-4.125,5.383506557731945,6.509608283145768,-33.0
3685,-5,8,-1,-3,-9,-4,-1,-1,True,8,-9,-2.0,4.869731585445518,4.9749371855331,-16.0
3686,4,-6,-5,-1,4,0,0,-5,True,4,-6,-1.125,3.9438016467073274,3.856812155135378,-9.0
3687,-5,-6,-7,-1,5,-4,-2,6,True,6,-7,-1.75,4.891683905218266,4.898979485566356,-14.0
3688,3,-1,-2,-1,7,1,1,-3,True,7,-3,0.625,3.2043497223082786,3.0618621784789726,5.0
3689,1,0,1,2,2,1,1,1,True,2,0,1.125,0.6408699444616557,1.2747548783981961,9.0
3690,-4,7,2,-3,4,6,1,0,True,7,-4,1.625,3.9618718519695424,4.046603514059662,13.0
3691,2,-1,2,-3,-6,-7,-2,-6,True,2,-7,-2.625,3.543101950067402,4.227883631321941,-21.0
3692,1,-2,-6,2,-13,-5,-1,-7,True,2,-13,-3.875,4.911720676097125,6.010407640085654,-31.0
3693,-13,-5,4,1,10,6,-1,1,True,10,-13,0.375,7.049569389078213,6.604922406811453,3.0
3694,-5,-6,-3,-4,-15,-13,-3,1,True,1,-15,-6.0,5.371884479132333,7.826237921249264,-48.0
3695,3,11,5,5,-5,3,4,7,True,11,-5,4.125,4.517821851923146,5.905505905508858,33.0
3696,3,1,-4,-4,-32,-19,-4,8,True,8,-32,-6.375,12.993817211054099,13.724977231310804,-51.0
3697,5,-7,14,2,0,-1,-2,-9,True,14,-9,0.25,7.166389806390862,6.708203932499369,2.0
3698,-2,-14,-3,-1,1,2,-1,-3,True,2,-14,-2.625,4.926241685388278,5.303300858899107,-21.0
3699,5,1,-7,0,-1,3,1,1,True,5,-7,0.375,3.50255009141299,3.29772648956823,3.0
3700,8,3,-2,-6,6,0,-2,-8,True,8,-8,-0.125,5.566160513059505,5.208166663999915,-1.0
3701,-1,-11,-2,-4,3,3,4,3,True,4,-11,-0.625,5.097268175909804,4.808846015417836,-5.0
3702,-6,-5,-4,1,26,14,4,5,True,26,-6,4.375,10.940586299254193,11.129914644776033,35.0
3703,1,8,3,9,-3,-2,-1,4,True,9,-3,2.375,4.470139019889969,4.808846015417836,19.0
3704,-2,-3,-2,-2,11,6,2,0,True,11,-3,1.25,4.920801328471382,4.769696007084728,10.0
3705,-8,-3,-3,0,-8,-4,0,-3,True,0,-8,-3.625,3.0676887530703443,4.623310502226732,-29.0
3706,0,12,-1,-2,-4,-3,-1,3,True,12,-4,0.5,5.0990195135927845,4.795831523312719,4.0
3707,6,2,-7,-8,-2,5,1,7,True,7,-8,0.5,5.732115042211108,5.385164807134504,4.0
3708,3,-7,2,3,1,1,-3,-5,True,3,-7,-0.625,3.8521793460696654,3.6571847095819483,-5.0
3709,-8,-12,-5,-4,6,2,-1,0,True,6,-12,-2.75,5.725881092523166,6.020797289396148,-22.0
3710,5,19,17,5,6,0,3,1,True,19,0,7.0,7.111359122659224,9.656603957913983,56.0
3711,0,5,4,1,-4,-4,-1,0,True,5,-4,0.125,3.2705394924123103,3.0618621784789726,1.0
3712,-5,-5,-7,3,10,4,-4,6,True,10,-7,0.25,6.273527146441853,5.873670062235365,2.0
3713,1,0,-7,-6,-5,-2,-1,2,True,2,-7,-2.25,3.3700360320244136,3.872983346207417,-18.0
3714,-2,-17,-5,-5,-29,-9,-4,-2,True,-2,-29,-9.125,9.402697181432266,12.673791855636576,-73.0
3715,-2,-1,-4,1,9,6,1,4,True,9,-4,1.75,4.334248987508019,4.415880433163924,14.0
3716,-10,7,-1,-2,-4,0,1,1,True,7,-10,-1.0,4.840306956027833,4.636809247747852,-8.0
3717,-4,0,3,-2,4,-1,-1,-4,True,4,-4,-0.625,2.9246489410818914,2.806243040080456,-5.0
3718,-4,-7,-4,1,13,9,-1,-6,True,13,-7,0.125,7.259230577094832,6.791538853603062,1.0
3719,2,1,0,0,6,1,1,-3,True,6,-3,1.0,2.5071326821120348,2.5495097567963922,8.0
3720,3,6,4,2,5,0,4,6,True,6,0,3.75,2.052872551885702,4.2130748865881795,30.0
3721,-9,1,-5,0,2,2,0,-2,True,2,-9,-1.375,3.8521793460696654,3.856812155135378,-11.0
3722,-3,16,6,-1,-1,-3,-1,-5,True,16,-5,1.0,6.866065623255952,6.5,8.0
3723,-14,-15,-12,-5,-9,-7,-1,-3,True,-1,-15,-8.25,5.1478150704935,9.5524865872714,-66.0
3724,1,-1,-1,0,3,-1,-2,-4,True,3,-4,-0.625,2.0658792662827956,2.03100960115899,-5.0
3725,3,5,4,1,-24,-12,-5,-3,True,5,-24,-3.875,9.891374308673477,10.031201323869439,-31.0
3726,15,-6,-4,-2,-15,-7,-4,-35,True,15,-35,-7.25,14.017845768876187,14.983324063771697,-58.0
3727,0,15,7,-4,-15,-8,0,8,True,15,-15,0.375,9.575825216211319,8.965210538520553,3.0
3728,0,0,-7,0,5,1,-4,2,True,5,-7,-0.375,3.662064211031025,3.4460121880225554,-3.0
3729,-2,-14,-7,-4,7,-2,-2,-5,True,7,-14,-3.625,5.8782285961479435,6.585969936159746,-29.0
3730,-6,-2,3,-2,-10,-7,1,7,True,7,-10,-2.0,5.606119105813881,5.612486080160912,-16.0
3731,4,-1,0,2,-4,-2,-2,-7,True,4,-7,-1.25,3.4121631178560534,3.427827300200522,-10.0
3732,-7,-5,-3,-2,8,4,0,12,True,12,-7,0.875,6.599512969043354,6.234981956669963,7.0
3733,2,11,3,-1,-5,-7,-2,0,True,11,-7,0.125,5.514591035218685,5.1599418601375735,1.0
3734,-1,8,0,-2,-1,1,-2,-4,True,8,-4,-0.125,3.603074084326168,3.3726843908080104,-1.0
3735,8,10,4,-1,5,1,1,15,True,15,-1,5.375,5.370222128951997,7.3569694847810805,43.0
3736,-2,-15,2,3,6,1,-1,18,True,18,-15,1.5,9.149551120917666,8.689073598491383,12.0
3737,-6,-4,8,-4,-13,-10,-3,-8,True,8,-13,-5.0,6.25642526870234,7.697402159170326,-40.0
3738,4,-6,-5,-4,4,8,1,-9,True,8,-9,-0.875,5.962681563572838,5.645794895318107,-7.0
3739,-4,-8,-3,-3,-26,-10,-6,-16,True,-3,-26,-9.5,7.964205637009345,12.072696467649637,-76.0
3740,0,2,-1,-4,15,-22,-5,4,True,15,-22,-1.375,10.391445657710136,9.81707695803593,-11.0
3741,-8,-7,-5,3,9,9,1,-3,True,9,-8,-0.125,6.749338591934133,6.314665470157545,-1.0
3742,6,11,26,4,-2,2,1,0,True,26,-2,6.0,9.023778112773575,10.35615758860399,48.0
3743,0,-1,-3,0,45,20,8,8,True,45,-3,9.625,16.132819255878903,17.89902231966875,77.0
3744,-8,15,8,6,0,5,1,-3,True,15,-8,3.0,7.091242083423347,7.280109889280518,24.0
3745,1,-2,-1,0,8,2,-5,1,True,8,-5,0.5,3.7416573867739413,3.5355339059327378,4.0
3746,1,-7,-14,-8,-6,0,1,7,True,7,-14,-3.25,6.670832032063167,7.035623639735144,-26.0
3747,5,4,-1,0,-6,-28,-12,-7,True,5,-28,-5.625,10.702970215251998,11.483684077855852,-45.0
3748,3,-2,-3,-2,-18,-10,-3,-11,True,3,-18,-5.75,6.713525792862389,8.514693182963201,-46.0
3749,1,0,-2,0,-5,-7,-7,1,True,1,-7,-2.375,3.461523198989551,4.0155946010522525,-19.0
3750,-4,-2,-1,4,6,11,-9,1,True,11,-9,0.75,6.22781777878209,5.873670062235365,6.0
3751,1,-20,-6,-4,-7,1,0,-18,True,1,-20,-6.625,8.245128431816138,10.167349703831377,-53.0
3752,-6,21,10,2,16,10,5,0,True,21,-6,7.25,8.795290947839238,10.965856099730654,58.0
3753,6,6,-1,-1,1,0,3,15,True,15,-1,3.625,5.3967582862307255,6.214901447328026,29.0
3754,-4,-7,-6,-4,-5,-21,-5,5,True,5,-21,-5.875,7.140178069008003,8.895223437328598,-47.0
3755,-1,-2,-1,1,4,8,3,-5,True,8,-5,0.875,4.051013982414068,3.8890872965260113,7.0
3756,2,-2,6,0,0,5,1,-11,True,6,-11,0.125,5.221863378417434,4.886205071423016,1.0
3757,-4,-1,-4,-3,-9,1,2,14,True,14,-9,-0.5,6.782329983125268,6.363961030678928,-4.0
3758,1,-6,-14,-5,-6,1,1,-5,True,1,-14,-4.125,5.139135558215436,6.334429729659964,-33.0
3759,-1,3,-1,2,7,23,12,-8,True,23,-8,4.625,9.48589177975075,10.00624804809475,37.0
3760,-4,-11,-7,-3,-11,-4,3,6,True,6,-11,-3.875,6.057757718118856,6.864765108872991,-31.0
3761,-1,0,2,0,8,11,8,1,True,11,-1,3.625,4.627171304989074,5.645794895318107,29.0
3762,6,-6,-4,-3,-10,0,4,0,True,6,-10,-1.625,5.2355242608275905,5.1599418601375735,-13.0
3763,-3,3,4,-2,-9,-10,-4,-8,True,4,-10,-3.625,5.262739645035518,6.113509630318742,-29.0
3764,-3,-4,-8,0,3,1,-4,-2,True,3,-8,-2.125,3.440826312717007,3.856812155135378,-17.0
3765,-2,-10,-7,-1,3,0,-6,-9,True,3,-10,-4.0,4.6598589800857395,5.916079783099616,-32.0
3766,-7,2,-11,-6,-11,-3,-2,2,True,2,-11,-4.5,5.154748157905347,6.59545297913646,-36.0
3767,9,3,-2,2,21,12,-5,0,True,21,-5,5.0,8.518886580500327,9.40744386111339,40.0
3963,-8,-7,0,-1,18,5,0,0,True,18,-8,0.875,8.078852464481397,7.607562027351469,7.0
3964,5,-1,0,-6,-10,-1,0,1,True,5,-10,-1.5,4.566962103755937,4.527692569068709,-12.0
3965,-4,4,5,-4,5,-4,-2,-2,True,5,-4,-0.25,4.166190448976482,3.905124837953327,-2.0
3966,-1,2,7,4,-2,-4,0,1,True,7,-4,0.875,3.48209706929603,3.3726843908080104,7.0
3967,12,-3,-4,-10,-7,0,0,2,True,12,-10,-1.25,6.649382355849731,6.34428877022476,-10.0
3968,1,-24,-16,-6,5,0,-1,-3,True,5,-24,-5.5,9.72478424292429,10.63014581273465,-44.0
3969,7,18,4,-2,0,-2,1,0,True,18,-2,3.25,6.692212958783834,7.053367989832942,26.0
3970,-15,2,6,-1,0,1,-1,-3,True,6,-15,-1.375,6.1164298643664905,5.88430114796991,-11.0
3971,0,15,10,2,-5,-2,-1,-2,True,15,-5,2.125,6.8334785118143575,6.73609679265374,17.0
3972,1,10,1,-2,-13,-3,0,2,True,10,-13,-0.5,6.391959234627741,6.0,-4.0
3973,-13,-16,0,1,1,-1,-2,-2,True,1,-16,-4.0,6.6332495807108,7.3824115301167,-32.0
3974,15,15,12,9,8,0,-1,2,True,15,-1,7.5,6.48074069840786,9.643650760992955,60.0
3975,-9,-6,-3,-10,8,-3,-3,-7,True,8,-10,-4.125,5.617256574927962,6.680194607943694,-33.0
3976,-4,-11,-3,-4,-4,-1,0,2,True,2,-11,-3.125,3.8706773124535783,4.782781617427248,-25.0
3977,-5,-14,-2,-7,-11,-1,0,-6,True,0,-14,-5.75,4.891683905218266,7.3484692283495345,-46.0
3978,10,15,7,2,6,0,-2,-2,True,15,-2,4.5,6.09449400220044,7.262919523166975,36.0
3979,12,3,1,7,1,0,-3,-19,True,12,-19,0.25,9.051440295807703,8.470537173048708,2.0
3980,-6,-10,0,2,2,2,2,0,True,2,-10,-1.0,4.535573676110727,4.358898943540674,-8.0
3981,-3,12,-5,-3,-10,-4,0,10,True,12,-10,-0.375,7.5769858311675815,7.097534783289195,-3.0
3982,12,3,5,4,1,2,-1,-3,True,12,-3,2.875,4.517821851923146,5.111262075065218,23.0
3983,0,-19,2,0,-3,-2,1,4,True,4,-19,-2.125,7.16015761997298,7.026734661277598,-17.0
3984,2,10,-12,-6,12,-6,-3,-3,True,12,-12,-0.75,8.259194011178433,7.762087348130012,-6.0
3985,4,7,0,2,-2,-1,1,1,True,7,-2,1.5,2.8784916685156974,3.082207001484488,12.0
3986,-8,-4,-4,-4,-6,-1,-1,1,True,1,-8,-3.375,2.9246489410818914,4.344536799245692,-27.0
3987,-8,-12,-9,-5,-2,-3,-1,3,True,3,-12,-4.625,4.8678977568791,6.490377492873585,-37.0
3988,8,10,0,-1,4,3,0,0,True,10,-1,3.0,4.105745103771404,4.873397172404482,24.0
3989,-12,1,-4,-2,0,0,-1,-1,True,1,-12,-2.375,4.172614801981401,4.568916720624267,-19.0
3990,-1,2,-3,1,-7,-3,-1,0,True,2,-7,-1.5,2.8284271247461903,3.0413812651491097,-12.0
3991,1,3,-7,-4,-6,-3,-2,-4,True,3,-7,-2.75,3.3700360320244136,4.183300132670378,-22.0
3992,2,44,28,6,7,3,1,2,True,44,1,11.625,15.774640589068445,18.7849673941692,93.0
3993,5,12,14,4,-1,2,1,2,True,14,-1,4.875,5.356904756613521,6.991065727054782,39.0
3994,-7,-30,-14,-1,-5,-4,-5,-4,True,-1,-30,-8.75,9.37702359112802,12.389511693363866,-70.0
3995,-2,-8,-2,3,1,1,0,5,True,5,-8,-0.25,3.918819064098629,3.6742346141747673,-2.0
3996,-10,-1,-2,-6,-8,1,-1,-10,True,1,-10,-4.625,4.405759217854998,6.194755846681933,-37.0
3997,-6,3,3,1,9,3,0,-1,True,9,-6,1.5,4.27617987059879,4.272001872658765,12.0
3998,11,4,-8,-3,-12,-9,-2,3,True,11,-12,-2.0,7.708992893275452,7.483314773547883,-16.0
3999,1,-6,3,-8,-7,-4,-1,-2,True,3,-8,-3.0,3.9279220242478625,4.743416490252569,-24.0
4000,-8,-16,4,6,6,0,0,6,True,6,-16,-0.25,7.959720023791217,7.44983221287567,-2.0
4001,-7,-10,-3,5,9,2,-1,-1,True,9,-10,-0.75,6.158617655657106,5.809475019311125,-6.0
4002,-3,16,6,1,2,0,-3,0,True,16,-3,2.375,6.2091522310675735,6.274950199005566,19.0
4003,-10,-28,-22,-5,-8,-4,-4,-2,True,-2,-28,-10.375,9.500939803138273,13.66107609231425,-83.0
4004,0,4,5,1,21,0,-1,-11,True,21,-11,2.375,8.943273609654511,8.696263565463044,19.0
4005,7,5,-7,-4,-1,-3,1,-1,True,7,-7,-0.375,4.627171304989074,4.344536799245692,-3.0
4006,-1,9,12,-1,-17,-4,-1,-3,True,12,-17,-0.75,8.762745818846641,8.231038816577165,-6.0
4007,5,3,-2,-5,-4,-6,-4,-12,True,5,-12,-3.125,5.303300858899107,5.863019699779287,-25.0
4008,1,-6,-5,-6,7,-6,-1,6,True,7,-6,-1.25,5.444525428617001,5.244044240850758,-10.0
4009,-13,-14,-3,-1,-6,-2,-1,0,True,0,-14,-5.0,5.5549205986353085,7.211102550927978,-40.0
4010,5,4,-7,-2,0,3,0,1,True,5,-7,0.5,3.8172540616821107,3.605551275463989,4.0
4011,13,34,21,3,0,1,0,1,True,34,0,9.125,12.597477071677034,14.90385856078888,73.0
4012,6,-11,-1,3,4,2,-1,0,True,6,-11,0.25,5.175491695067657,4.847679857416329,2.0
4013,12,11,-4,1,1,2,0,3,True,12,-4,3.25,5.496752287877426,6.082762530298219,26.0
4014,-4,-4,-6,0,-9,-4,3,-1,True,3,-9,-3.125,3.720119045714225,4.677071733467427,-25.0
4015,-5,-8,-5,-5,-6,-6,-2,-4,True,-2,-8,-5.125,1.7268882005337973,5.373546315051169,-41.0
4016,1,-12,0,-6,-9,1,-3,-4,True,1,-12,-4.0,4.780914437337574,6.0,-32.0
4017,-3,-12,-5,-3,-3,0,-2,1,True,1,-12,-3.375,3.9618718519695424,5.0124844139408555,-27.0
4018,-4,-5,-4,-5,-5,-2,-2,1,True,1,-5,-3.25,2.1213203435596424,3.8078865529319543,-26.0
4019,2,-7,-2,3,9,6,0,-7,True,9,-7,0.5,5.732115042211108,5.385164807134504,4.0
4020,4,11,11,5,9,2,-2,0,True,11,-2,5.0,4.956957592256421,6.819090848492928,40.0
4021,-5,-3,-2,-3,11,9,3,5,True,11,-5,1.875,6.0341291240504855,5.947688626685159,15.0
4022,2,8,0,9,5,2,7,-1,True,9,-1,4.0,3.779644730092272,5.338539126015656,32.0
4023,-8,-14,-1,1,9,1,-2,-17,True,9,-17,-3.875,8.592978861505811,8.923284148787374,-31.0
4024,-7,-6,3,-2,7,4,1,3,True,7,-7,0.375,4.955156044825574,4.650268809434569,3.0
4025,0,3,7,4,-1,1,4,14,True,14,-1,4.0,4.780914437337574,6.0,32.0
4026,5,3,-3,-1,8,4,7,3,True,8,-3,3.25,3.7321001364608946,4.769696007084728,26.0
4027,-12,1,-5,-1,-5,-4,-1,5,True,5,-12,-2.75,5.035587637718447,5.454356057317857,-22.0
4028,-7,-11,-6,-6,-10,-8,-5,-1,True,-1,-11,-6.75,3.1052950170405937,7.3484692283495345,-54.0
4029,-1,-4,-6,-4,0,-1,-2,-2,True,0,-6,-2.5,2.0,3.122498999199199,-20.0
4030,-10,1,5,0,2,1,-1,-2,True,5,-10,-0.5,4.375255094603872,4.123105625617661,-4.0
4031,-6,-4,-4,-5,-21,-9,-1,-4,True,-1,-21,-6.75,6.181770435262516,8.888194417315589,-54.0
4032,-6,-7,-4,0,3,0,-5,-16,True,3,-16,-4.375,5.829420456369815,6.991065727054782,-35.0
4033,8,10,4,0,-3,3,-19,-13,True,10,-19,-1.25,10.110108096073242,9.539392014169456,-10.0
4034,6,3,-5,-5,-6,-1,-1,7,True,7,-6,-0.25,5.092010548749033,4.769696007084728,-2.0
4035,1,-1,-9,-6,-5,-7,3,5,True,5,-9,-2.375,5.097268175909804,5.326818938165629,-19.0
4036,-8,-3,1,4,6,-8,-11,-2,True,6,-11,-2.625,6.093028803476971,6.274950199005566,-21.0
4037,4,3,-1,0,2,-1,4,7,True,7,-1,2.25,2.8157719063467175,3.4641016151377544,18.0
4038,-2,-6,-2,-5,5,3,3,-13,True,5,-13,-2.125,5.914570386523678,5.926634795564849,-17.0
4039,4,-1,2,5,-12,-13,-7,2,True,5,-13,-2.5,7.191264542087553,7.176350047203662,-20.0
4040,6,-1,1,6,14,11,5,2,True,14,-1,5.5,5.0426750270636544,7.245688373094719,44.0
4041,11,4,0,-3,-14,4,5,-2,True,11,-14,0.625,7.405355205139434,6.955213871621778,5.0
4042,2,-1,1,8,1,-11,-2,-1,True,8,-11,-0.375,5.289815011618351,4.962358310319802,-3.0
4043,-14,-5,-5,-5,-10,-10,-4,9,True,9,-14,-5.5,6.824326235712107,8.426149773176359,-44.0
4044,-8,-6,-2,-2,1,4,3,7,True,7,-8,-0.375,5.097268175909804,4.782781617427248,-3.0
4045,-5,-11,-6,-6,-2,7,7,-3,True,7,-11,-2.375,6.368168608679533,6.41287766919033,-19.0
4046,-7,-3,-2,-6,-8,-4,-2,-7,True,-2,-8,-4.875,2.416461403433896,5.373546315051169,-39.0
4047,-1,0,-2,-1,0,5,4,1,True,5,-2,0.75,2.4928469095164494,2.449489742783178,6.0
4048,3,7,6,4,5,0,-2,6,True,7,-2,3.625,3.1594529363709243,4.677071733467427,29.0
4049,-8,-8,-4,-3,5,0,-3,3,True,5,-8,-2.25,4.713203338949605,4.949747468305833,-18.0
4050,-10,-8,3,-1,-6,-4,-2,-6,True,3,-10,-4.25,4.166190448976482,5.766281297335398,-34.0
4051,7,-2,-2,0,7,2,2,-1,True,7,-2,1.625,3.662064211031025,3.7914377220257753,13.0
4052,-10,10,6,0,-5,3,0,-10,True,10,-10,-0.75,7.225945316308843,6.800735254367722,-6.0
4053,13,27,11,4,0,7,4,-10,True,27,-10,7.0,10.743768958264665,12.24744871391589,56.0
4054,5,-7,-8,-4,0,-1,1,1,True,5,-8,-1.625,4.405759217854998,4.430011286667337,-13.0
4055,-4,18,6,3,1,-5,-6,2,True,18,-6,1.875,7.772432970808708,7.508328708840604,15.0
4056,5,-5,-6,-3,-2,-2,-4,-5,True,5,-6,-2.75,3.4537764010675946,4.242640687119285,-22.0
4057,-13,-5,1,-3,-8,-3,10,8,True,10,-13,-1.625,7.74481393302272,7.424621202458749,-13.0
4058,-6,-15,-9,-4,-5,3,-3,-1,True,3,-15,-5.0,5.371884479132333,7.088723439378913,-40.0
4059,-2,-14,-2,-4,2,1,2,1,True,2,-14,-2.0,5.31843156256751,5.361902647381804,-16.0
4060,-1,0,1,4,14,14,7,5,True,14,-1,5.5,5.879747322073336,7.7781745930520225,44.0
4061,-3,3,0,-3,-2,-10,-4,0,True,3,-10,-2.375,3.814914340921881,4.286607049870562,-19.0
4062,2,2,-4,-2,1,-5,-3,3,True,3,-5,-0.75,3.1052950170405937,3.0,-6.0
4063,11,-1,-2,-4,-11,0,0,0,True,11,-11,-0.875,6.057757718118856,5.733672470589857,-7.0
4064,1,2,3,1,-4,-3,0,-4,True,3,-4,-0.5,2.7774602993176543,2.6457513110645907,-4.0
4065,12,7,2,1,-3,-3,0,6,True,12,-3,2.75,5.230405611149374,5.612486080160912,22.0
4066,4,-16,-10,-5,-9,-9,-4,-6,True,4,-16,-6.875,5.767829500154901,8.739279146474267,-55.0
4067,-6,-3,-4,0,4,3,-2,-4,True,4,-6,-1.5,3.5456210417116734,3.640054944640259,-12.0
4068,-4,-8,-2,2,7,11,3,0,True,11,-8,1.125,6.057757718118856,5.777110004145672,9.0
4069,-5,4,1,-4,1,5,4,0,True,5,-5,0.75,3.693623849670827,3.5355339059327378,6.0
4070,-3,-13,6,2,-1,-3,-5,-2,True,6,-13,-2.375,5.50162313711664,5.667892024377317,-19.0
4071,4,-3,-2,2,-2,-2,-2,-1,True,4,-3,-0.75,2.434865792722759,2.3979157616563596,-6.0
4072,-8,-6,-3,-3,-2,0,2,-3,True,2,-8,-2.875,3.1367635732209265,4.107919181288746,-23.0
4073,-4,7,3,2,-2,-8,-16,7,True,7,-16,-1.375,7.8909984883319515,7.508328708840604,-11.0
4074,2,1,0,1,8,1,-1,-2,True,8,-2,1.25,3.011881234615431,3.082207001484488,10.0
4075,-7,-2,-4,-1,1,2,6,4,True,6,-7,-0.125,4.257346591481601,3.984344362627307,-1.0
4076,1,4,-2,-2,0,-5,-5,0,True,4,-5,-1.125,3.044315545875155,3.0618621784789726,-9.0
4077,0,-5,-6,-2,-4,4,2,1,True,4,-6,-1.25,3.575711717366808,3.570714214271425,-10.0
4317,-6,-14,-3,-2,-1,0,1,2,True,2,-14,-2.875,5.139135558215436,5.60133912560202,-23.0
4318,-14,4,5,4,2,0,0,3,True,5,-14,0.5,6.141195788629908,5.766281297335398,4.0
4319,14,8,-2,-3,-1,-3,-2,2,True,14,-3,1.625,6.2091522310675735,6.031169040907409,13.0
4320,-7,-14,-8,-8,8,2,-2,-9,True,8,-14,-4.75,7.025463889106744,8.108637370113428,-38.0
4321,-3,-5,3,1,-2,-1,-2,-9,True,3,-9,-2.25,3.6547425158474374,4.092676385936225,-18.0
4322,-7,5,-2,0,-3,2,1,2,True,5,-7,-0.25,3.693623849670827,3.4641016151377544,-2.0
4323,-6,0,1,9,17,2,2,0,True,17,-6,3.125,6.937218462755804,7.202430145443967,25.0
4324,-5,12,16,0,-1,-1,-1,-3,True,16,-5,2.125,7.567552916422662,7.390872749547241,17.0
4325,2,-1,-5,-5,-6,2,-2,1,True,2,-6,-1.75,3.284161123592185,3.5355339059327378,-14.0
4326,6,-4,-7,-4,8,4,3,7,True,8,-7,1.625,5.7802001942592165,5.645794895318107,13.0
4327,-4,6,3,0,-3,0,-1,-5,True,6,-5,-0.5,3.664501525251617,3.4641016151377544,-4.0
4328,-7,-1,4,0,-9,-5,-3,-6,True,4,-9,-3.375,4.240535680446853,5.208166663999915,-27.0
4329,7,-6,1,-1,-1,-2,-1,0,True,7,-6,-0.375,3.6228441865473595,3.409545424246464,-3.0
4330,0,2,-6,-3,-5,-5,-1,-1,True,2,-6,-2.375,2.8252686345094435,3.553167600887974,-19.0
4331,-8,-7,-6,-3,-6,-4,-1,1,True,1,-8,-4.25,3.1052950170405937,5.1478150704935,-34.0
4332,6,-6,-5,-3,-1,1,0,5,True,6,-6,-0.375,4.34042460069124,4.077376607575022,-3.0
4333,7,8,4,0,-4,-2,0,-1,True,8,-4,1.5,4.342481186734475,4.330127018922194,12.0
4334,1,-8,-8,-6,2,1,2,9,True,9,-8,-0.875,5.962681563572838,5.645794895318107,-7.0
4335,-9,0,-1,1,3,0,0,-5,True,3,-9,-1.375,3.814914340921881,3.824264635194589,-11.0
4336,15,-3,6,3,1,-1,-1,3,True,15,-3,2.875,5.667892024377317,6.031169040907409,23.0
4337,2,-7,-6,-3,8,2,2,2,True,8,-7,0.0,4.985693819032899,4.663689526544408,0.0
4338,-6,3,0,1,6,0,-2,4,True,6,-6,0.75,3.7321001364608946,3.570714214271425,6.0
4339,-6,0,-2,-9,-26,-6,-1,-3,True,0,-26,-6.625,8.382592507265109,10.265232583823904,-53.0
4340,-4,-4,-3,-1,2,1,0,-3,True,2,-4,-1.5,2.3299294900428698,2.6457513110645907,-12.0
4341,-6,-3,-1,-1,8,-2,-1,3,True,8,-6,-0.375,4.2067123233504535,3.952847075210474,-3.0
4342,-2,-1,1,27,42,2,-5,-5,True,42,-5,7.375,17.394067133036234,17.864070084949844,59.0
4343,3,6,11,3,-3,-3,-1,-4,True,11,-4,1.5,5.237229365663817,5.123475382979799,12.0
4344,-6,-2,-6,-6,-20,-4,1,-2,True,1,-20,-5.625,6.323143431644016,8.162413858657255,-45.0
4345,5,16,11,5,-4,-2,-2,2,True,16,-4,3.875,6.91659495086171,7.541551564499178,31.0
4346,9,5,6,-1,0,-1,-4,-16,True,9,-16,-0.25,7.704358692139331,7.211102550927978,-2.0
4347,-12,-19,-13,-10,-15,-2,2,0,True,2,-19,-8.625,7.670677004951108,11.219402836158437,-69.0
4348,-1,-7,-8,-7,-12,-3,-2,-10,True,-1,-12,-6.25,3.918819064098629,7.245688373094719,-50.0
4349,7,9,-1,2,6,4,1,6,True,9,-1,4.25,3.3700360320244136,5.291502622129181,34.0
4350,-3,-3,0,-1,-6,0,-1,2,True,2,-6,-1.5,2.449489742783178,2.7386127875258306,-12.0
4351,-4,3,-2,1,2,-3,0,6,True,6,-4,0.375,3.3354160160315836,3.142451272494134,3.0
4352,1,2,-1,-10,-18,1,0,4,True,4,-18,-2.625,7.4821215478728265,7.474958193863027,-21.0
4353,3,-9,0,0,9,1,0,3,True,9,-9,0.875,4.9982139667227985,4.756574397610112,7.0
4354,-6,2,0,-2,-9,-4,2,1,True,2,-9,-2.0,4.035556254807296,4.272001872658765,-16.0
4355,3,-26,-9,-2,0,-1,0,-6,True,3,-26,-5.125,9.234059624177068,10.043654713300333,-41.0
4356,19,12,-6,1,-4,-2,-1,8,True,19,-6,3.375,8.749489781042746,8.852965604812887,27.0
4357,-13,2,0,-3,-1,-2,2,-4,True,2,-13,-2.375,4.808846015417836,5.086747487343951,-19.0
4358,4,7,21,8,4,2,3,-3,True,21,-3,5.75,7.00510018282598,8.717797887081348,46.0
4359,-10,4,-3,-3,0,-1,0,3,True,4,-10,-1.25,4.334248987508019,4.242640687119285,-10.0
4360,0,-10,-1,1,0,0,-3,-10,True,1,-10,-2.875,4.54933276112317,5.135659646043535,-23.0
4361,0,31,10,2,0,0,-1,0,True,31,-1,5.25,10.990255424043351,11.543396380615196,42.0
4362,-3,-13,-5,1,-2,0,-1,-5,True,1,-13,-3.5,4.4077853201547175,5.408326913195984,-28.0
4363,7,-9,-8,0,1,-1,-1,-2,True,7,-9,-1.625,5.069164484550543,5.0124844139408555,-13.0
4364,7,2,0,-3,-9,0,-3,-7,True,7,-9,-1.625,5.069164484550543,5.0124844139408555,-13.0
4365,-2,-17,-3,0,-6,1,-1,5,True,5,-17,-2.875,6.5342504215425175,6.754628043053148,-23.0
4366,-3,-3,-2,2,10,3,3,12,True,12,-3,2.75,5.70087712549569,6.0,22.0
4367,15,22,2,1,-2,-1,-1,2,True,22,-2,4.75,8.811518435709996,9.513148795220223,38.0
4368,-3,13,2,-3,-10,-4,-1,1,True,13,-10,-0.625,6.610327417868843,6.214901447328026,-5.0
4369,-8,-3,-4,0,0,1,-6,-5,True,1,-8,-3.125,3.2265638511757806,4.344536799245692,-25.0
4370,5,5,1,-3,4,0,0,-7,True,5,-7,0.625,4.172614801981401,3.952847075210474,5.0
4371,-3,-10,-2,1,2,-1,0,6,True,6,-10,-0.875,4.611708700997618,4.401704215414752,-7.0
4372,3,-8,-4,-3,-8,0,5,-1,True,5,-8,-2.0,4.7207747548166585,4.847679857416329,-16.0
4373,15,18,-2,-5,-6,-3,-1,-5,True,18,-6,1.375,9.515964030437033,9.00694176732591,11.0
4374,-13,-17,0,2,-2,-6,-4,-3,True,2,-17,-5.375,6.501373481262028,8.116341540373963,-43.0
4375,-8,-2,-3,-4,-5,-3,-2,-5,True,-2,-8,-4.0,2.0,4.415880433163924,-32.0
4376,1,11,-3,-2,3,2,3,1,True,11,-3,2.0,4.242640687119285,4.444097208657794,16.0
4377,-5,-1,2,1,6,2,1,4,True,6,-5,1.25,3.284161123592185,3.3166247903554,10.0
4378,-4,14,11,1,0,-2,-4,-7,True,14,-7,1.125,7.4916620318858484,7.097534783289195,9.0
4379,-3,3,-1,-3,2,0,1,1,True,3,-3,0.0,2.2038926600773587,2.0615528128088303,0.0
4380,1,8,-1,-2,-1,5,3,2,True,8,-2,1.875,3.399054490379851,3.69120576505835,15.0
4381,2,0,4,1,2,-1,-2,0,True,4,-2,0.75,1.9086270308410553,1.9364916731037085,6.0
4382,-3,3,0,-1,-5,14,8,22,True,22,-5,4.75,9.315885051121782,9.924716620639604,38.0
4383,3,0,-2,-1,-2,1,-1,-4,True,3,-4,-0.75,2.1213203435596424,2.1213203435596424,-6.0
4384,-7,9,-1,-1,10,-3,0,-1,True,10,-7,0.75,5.824823725107175,5.5,6.0
4385,-4,-9,-4,0,10,6,-6,-8,True,10,-9,-1.875,6.770471602058878,6.604922406811453,-15.0
4386,-1,-16,-3,-4,0,1,4,3,True,4,-16,-2.0,6.279217421667402,6.2048368229954285,-16.0
4387,-4,1,4,0,-14,-1,3,-5,True,4,-14,-2.0,5.756983337031395,5.744562646538029,-16.0
4388,8,8,-3,1,11,-10,-5,4,True,11,-10,1.75,7.32412842206205,7.0710678118654755,14.0
4389,14,6,2,14,9,7,5,5,True,14,2,7.75,4.334248987508019,8.74642784226795,62.0
4390,-7,-7,-5,-4,-11,-5,-6,-4,True,-4,-11,-6.125,2.295181287579947,6.490377492873585,-49.0
4580,-1,3,-2,1,3,2,0,-1,True,3,-2,0.625,1.922609833384967,1.9039432764659772,5.0
4581,-2,2,-7,-9,-9,-2,-2,-1,True,2,-9,-3.75,4.06201920231798,5.338539126015656,-30.0
4582,3,6,6,2,1,-2,1,-3,True,6,-3,1.75,3.284161123592185,3.5355339059327378,14.0
4583,2,0,-1,-4,-5,-1,0,2,True,2,-5,-0.875,2.5319388392523003,2.5248762345905194,-7.0
4584,-2,-7,-1,4,0,-1,-1,-1,True,4,-7,-1.125,2.9970223317724636,3.020761493398643,-9.0
4585,2,2,-1,-3,-8,0,-2,4,True,4,-8,-0.75,3.7321001364608946,3.570714214271425,-6.0
4586,-5,0,0,-1,0,2,3,2,True,3,-5,0.125,2.4748737341529163,2.318404623873926,1.0
4587,-1,5,0,3,7,-1,-2,6,True,7,-2,2.125,3.563204817496262,3.952847075210474,17.0
4588,1,2,-1,-1,0,-3,0,5,True,5,-3,0.375,2.38671920665766,2.2638462845343543,3.0
4589,0,2,1,10,19,-1,-2,2,True,19,-2,3.875,7.120142454433659,7.705517503711221,31.0
4590,-1,0,0,-3,8,1,1,5,True,8,-3,1.375,3.50255009141299,3.553167600887974,11.0
4591,2,0,-3,0,-5,-1,-1,-7,True,2,-7,-1.875,2.948970764763288,3.3354160160315836,-15.0
4592,1,2,1,-1,4,0,-2,-5,True,4,-5,0.0,2.7255405754769875,2.5495097567963922,0.0
4593,-8,4,0,0,1,0,5,6,True,6,-8,1.0,4.375255094603872,4.2130748865881795,8.0
4594,1,-2,-2,-1,-5,-1,-3,-4,True,1,-5,-2.125,1.8850918886280925,2.7613402542968153,-17.0
4595,1,5,0,-5,-18,1,1,-6,True,5,-18,-2.625,7.1501748230375455,7.185053931599957,-21.0
4596,-3,-4,-5,-5,-13,-2,-2,-1,True,-1,-13,-4.375,3.77728171346236,5.623610939600996,-35.0
4597,0,-3,0,-4,-17,0,0,-2,True,0,-17,-3.25,5.775564289066727,6.304760106459246,-26.0
4598,-5,-1,0,4,7,-1,-5,-8,True,7,-8,-1.125,4.940720016932176,4.756574397610112,-9.0
4599,3,2,0,6,9,0,-3,3,True,9,-3,2.5,3.7416573867739413,4.301162633521313,20.0
4600,1,-2,-2,-7,-6,-9,1,6,True,6,-9,-2.25,4.949747468305833,5.1478150704935,-18.0
4601,-6,-13,-4,-6,2,-3,-4,-9,True,2,-13,-5.375,4.405759217854998,6.773108592072033,-43.0
4602,7,4,1,7,2,1,0,3,True,7,0,3.125,2.6958963523950885,4.0155946010522525,25.0
4603,1,2,-1,-1,-4,-1,-3,8,True,8,-4,0.125,3.720119045714225,3.48209706929603,1.0
4604,-16,-6,-3,-6,-8,-2,0,-5,True,0,-16,-5.75,4.862392121462145,7.33143914930759,-46.0
4605,-5,0,0,3,12,1,0,3,True,12,-5,1.75,4.832922806867792,4.847679857416329,14.0
4606,2,1,0,1,3,2,1,-6,True,3,-6,0.5,2.7774602993176543,2.6457513110645907,4.0
4607,-4,-5,-4,-2,-9,0,4,1,True,4,-9,-2.375,4.033343171967536,4.458138625031752,-19.0
4608,-1,8,4,1,1,1,-4,-16,True,8,-16,-0.75,7.086203900134804,6.670832032063167,-6.0
4609,9,3,-4,-2,-6,-1,-2,-3,True,9,-6,-0.75,4.713203338949605,4.47213595499958,-6.0
4610,10,11,6,1,6,0,0,2,True,11,0,4.5,4.4077853201547175,6.103277807866851,36.0
4611,4,6,13,0,4,-1,-1,-5,True,13,-5,2.5,5.529143565818179,5.744562646538029,20.0
4612,2,-11,-11,-2,2,-1,-4,-7,True,2,-11,-4.0,5.237229365663817,6.324555320336759,-32.0
4613,0,-12,-9,-6,-1,-4,-2,-6,True,0,-12,-5.0,4.105745103771404,6.304760106459246,-40.0
4614,1,1,2,1,-4,2,0,0,True,2,-4,0.375,1.922609833384967,1.8371173070873836,3.0
4615,-2,10,9,5,5,-1,-1,-3,True,10,-3,2.75,5.1478150704935,5.545268253204709,22.0
4616,1,-4,-1,0,0,0,-1,1,True,1,-4,-0.5,1.6035674514745462,1.5811388300841898,-4.0
4617,-1,11,-4,-2,1,-2,-1,0,True,11,-4,0.25,4.590362575159894,4.301162633521313,2.0
4618,-6,-1,5,-1,-2,-3,-2,3,True,5,-6,-0.875,3.440826312717007,3.3354160160315836,-7.0
4619,-1,-3,-8,-6,-2,-1,-1,-1,True,-1,-8,-2.875,2.6958963523950885,3.824264635194589,-23.0
4620,-2,-1,-2,-1,-1,0,2,6,True,6,-2,0.125,2.6958963523950885,2.5248762345905194,1.0
4621,-1,-10,-7,-1,1,-2,-4,-17,True,1,-17,-5.125,5.986592162013855,7.591113225344488,-41.0
4622,-3,3,4,3,13,1,0,3,True,13,-3,3.0,4.6291004988627575,5.267826876426369,24.0
4623,-10,-9,-8,-4,11,0,-1,-5,True,11,-10,-3.25,6.798108980759702,7.14142842854285,-26.0
4624,0,-9,3,-2,-2,-2,0,-3,True,3,-9,-1.875,3.440826312717007,3.724916106437835,-15.0
4625,2,4,1,-1,1,-1,-1,0,True,4,-1,0.625,1.7677669529663689,1.7677669529663689,5.0
4626,0,-24,-16,-5,-6,-1,3,4,True,4,-24,-5.625,9.75320460156558,10.717975555113009,-45.0
4627,-1,-5,2,0,-6,-2,-1,3,True,3,-6,-1.25,3.1052950170405937,3.1622776601683795,-10.0
4628,0,-5,-7,0,-3,0,-3,2,True,2,-7,-2.0,3.0237157840738176,3.4641016151377544,-16.0
4629,1,-4,-3,-7,-12,-1,0,1,True,1,-12,-3.125,4.517821851923146,5.25594901040716,-25.0
4630,-1,1,-2,2,1,2,2,4,True,4,-2,1.125,1.8850918886280925,2.091650066335189,9.0
4631,-2,9,6,2,-3,0,0,-16,True,9,-16,-0.5,7.445036697597361,6.98212002188447,-4.0
4632,3,6,-3,-1,-4,-2,0,-6,True,6,-6,-0.875,3.8706773124535783,3.724916106437835,-7.0
4633,-1,2,12,2,1,0,-1,6,True,12,-1,2.625,4.405759217854998,4.886205071423016,21.0
4634,-1,-2,1,-1,-1,-2,-4,-3,True,1,-4,-1.625,1.5059406173077154,2.1505813167606567,-13.0
4635,1,-1,4,6,9,4,-1,7,True,9,-1,3.625,3.7008686239082538,5.0124844139408555,29.0
4636,-3,8,-5,-6,-8,-3,-2,1,True,8,-8,-2.25,4.949747468305833,5.1478150704935,-18.0
4637,1,-4,-4,1,-6,-5,-1,3,True,3,-6,-1.875,3.3139316313320126,3.6228441865473595,-15.0
4638,-3,5,-1,-4,-6,-4,-3,-3,True,5,-6,-2.375,3.2923070504261465,3.8890872965260113,-19.0
4639,0,-7,-8,-1,-2,-2,-1,-8,True,0,-8,-3.625,3.420004177106889,4.834769901453429,-29.0
4640,-7,8,13,4,3,2,0,0,True,13,-7,2.875,5.914570386523678,6.234981956669963,23.0
4641,0,8,3,-3,-1,-4,-2,7,True,8,-4,1.0,4.535573676110727,4.358898943540674,8.0
4642,-2,-6,-4,0,-2,-3,2,-4,True,2,-6,-2.375,2.5035688811888406,3.3354160160315836,-19.0
4643,-4,-5,-6,-3,-1,0,0,-1,True,0,-6,-2.5,2.3299294900428698,3.3166247903554,-20.0
4644,5,-3,-2,0,-4,0,0,3,True,5,-4,-0.125,2.9970223317724636,2.806243040080456,-1.0
4645,-2,8,7,-1,2,-1,1,7,True,8,-2,2.625,4.103569874424672,4.650268809434569,21.0
4646,-2,-18,-8,-1,-5,-6,-5,-10,True,-1,-18,-6.875,5.356904756613521,8.507349763586777,-55.0
4647,0,-3,9,3,8,3,1,-1,True,9,-3,2.5,4.208834246473209,4.663689526544408,20.0
4648,-2,7,-4,-3,1,1,-2,2,True,7,-4,0.0,3.5456210417116734,3.3166247903554,0.0
4649,0,-4,-9,0,-3,-3,-3,-3,True,0,-9,-3.125,2.7998724460742337,4.077376607575022,-25.0
4650,1,-5,7,1,-1,2,1,0,True,7,-5,0.75,3.3273756282434617,3.2015621187164243,6.0
4651,1,-5,-6,-4,-14,-7,-6,-3,True,1,-14,-5.5,4.242640687119285,6.782329983125268,-44.0
4652,1,0,-5,0,-1,0,0,-1,True,1,-5,-0.75,1.8322507626258084,1.8708286933869707,-6.0
4653,5,-13,-3,1,6,-2,-3,-11,True,6,-13,-2.5,6.80336051416609,6.837397165588672,-20.0
4654,-4,2,-4,-4,7,5,1,-1,True,7,-4,0.25,4.267819784654187,4.0,2.0
4655,2,11,3,2,1,0,-4,-3,True,11,-4,1.5,4.566962103755937,4.527692569068709,12.0
4656,-1,7,-1,1,4,1,-1,6,True,7,-1,2.0,3.251373336211726,3.640054944640259,16.0
4657,-1,12,3,-1,-1,1,0,-12,True,12,-12,0.125,6.556076788533128,6.1339220731926485,1.0
4658,3,3,-1,-3,3,1,-3,-2,True,3,-3,0.125,2.6958963523950885,2.5248762345905194,1.0
4659,-2,-12,-5,-4,3,-2,0,7,True,7,-12,-1.875,5.642631098546644,5.60133912560202,-15.0
4660,2,3,6,0,6,1,-1,-3,True,6,-3,1.75,3.1959796173138706,3.4641016151377544,14.0
4661,1,-9,-3,2,3,3,3,4,True,4,-9,0.5,4.4077853201547175,4.153311931459037,4.0
4662,-3,3,-2,-1,-6,-4,-2,2,True,3,-6,-1.625,2.9730936268953445,3.2210246816812815,-13.0
4663,1,17,8,5,12,1,0,5,True,17,0,6.125,5.962681563572838,8.284020762890446,49.0
4664,-2,-3,-9,-4,-3,0,1,3,True,3,-9,-2.125,3.6425069859723185,4.0155946010522525,-17.0
4665,-1,2,-1,-2,-3,0,0,4,True,4,-3,-0.125,2.2320714274285347,2.091650066335189,-1.0
4666,3,-1,6,-1,-18,-10,-1,12,True,12,-18,-1.25,9.285164818907939,8.774964387392123,-10.0
4667,-4,-8,-5,-5,-16,1,-1,3,True,3,-16,-4.375,5.902481318419036,7.044501401802686,-35.0
4668,-4,-8,-4,-4,-11,-1,-2,-11,True,-1,-11,-5.625,3.8890872965260113,6.698880503487131,-45.0
4669,-9,-13,-7,0,18,7,0,-4,True,18,-13,-1.0,9.856107606091623,9.273618495495704,-8.0
4670,5,2,2,4,16,7,4,1,True,16,1,5.125,4.793969425970806,6.809919235938118,41.0
4671,0,-12,1,-2,-5,-4,-2,10,True,10,-12,-1.75,6.2048368229954285,6.06217782649107,-14.0
4672,-2,3,10,6,20,6,-1,-9,True,20,-9,4.125,8.708575412447532,9.130991183874837,33.0
4673,2,0,3,-3,-2,1,1,12,True,12,-3,1.75,4.590362575159894,4.636809247747852,14.0
4674,0,-2,-9,-3,-11,-2,0,-2,True,0,-11,-3.625,4.103569874424672,5.2796780204857185,-29.0
4675,-1,-6,-3,-3,-2,-1,-3,2,True,2,-6,-2.125,2.295181287579947,3.020761493398643,-17.0
4676,-2,-2,-2,0,-5,-1,0,5,True,5,-5,-0.875,2.850438562747845,2.806243040080456,-7.0
4677,2,3,2,4,-15,-10,0,-4,True,4,-15,-2.25,6.902380541730305,6.837397165588672,-18.0
4678,0,3,-1,-4,17,16,2,3,True,17,-4,4.5,7.764387566686396,8.54400374531753,36.0
4679,-2,-2,-2,1,-3,-16,-2,3,True,3,-16,-2.875,5.667892024377317,6.031169040907409,-23.0
4680,2,-1,-2,-1,-12,-14,-2,-4,True,2,-14,-4.25,5.67576300723398,6.800735254367722,-34.0
5127,0,-13,0,3,-10,2,-6,-17,True,3,-17,-5.125,7.529703086538577,8.710625695092173,-41.0
5128,-4,3,-1,-3,-5,-1,0,1,True,3,-5,-1.25,2.659215781283755,2.7838821814150108,-10.0
5129,1,-6,6,1,-3,7,10,15,True,15,-6,3.875,6.937218462755804,7.558108228915487,31.0
5130,-3,-6,1,4,10,2,4,-17,True,10,-17,-0.625,8.175529690135416,7.673004626611403,-5.0
5131,-10,-1,-1,1,7,6,1,27,True,27,-10,3.75,10.727135152100423,10.712142642814275,30.0
5132,4,9,1,2,8,-18,-5,-7,True,9,-18,-0.75,8.940278039779939,8.396427811873332,-6.0
5133,1,0,0,0,1,1,0,-4,True,1,-4,-0.125,1.6420805617960925,1.541103500742244,-1.0
5134,-3,-18,-1,2,12,6,9,2,True,12,-18,1.125,9.203066259211033,8.681877677092668,9.0
5135,8,3,-1,-5,-6,-10,-3,1,True,8,-10,-1.625,5.655275665884277,5.533985905294664,-13.0
5136,-2,-5,-7,-2,-2,0,1,5,True,5,-7,-1.5,3.664501525251617,3.7416573867739413,-12.0
5137,5,6,9,3,13,8,-4,-38,True,13,-38,0.25,16.228282190581442,15.182226450688976,2.0
5138,7,7,1,-2,4,5,-3,-6,True,7,-6,1.625,4.897156609415596,4.860555523805895,13.0
5139,-8,-7,-5,-3,-6,-2,-3,-15,True,-2,-15,-6.125,4.155461122770509,7.254309064273454,-49.0
5140,-3,-18,2,-1,1,1,1,-5,True,2,-18,-2.75,6.606274074155351,6.7638746292343415,-22.0
5141,-1,-4,-3,-5,3,2,2,0,True,3,-5,-0.75,3.011881234615431,2.9154759474226504,-6.0
5142,-2,20,1,0,-1,0,-6,8,True,20,-6,2.5,8.071112509614592,7.952986860293433,20.0
5143,-6,-10,1,-3,10,7,3,11,True,11,-10,1.625,7.595816517756901,7.2886898685566255,13.0
5144,4,-2,-6,-16,-40,-6,-3,-7,True,4,-40,-9.5,13.543580450847235,15.835087622113116,-76.0
5145,-5,2,-3,-4,-9,-9,-1,9,True,9,-9,-2.5,5.9521904731427595,6.103277807866851,-20.0
5146,-10,-4,-3,24,25,14,13,6,True,25,-10,8.125,13.08693459687398,14.692685254915114,65.0
5147,-1,1,-8,-7,-25,-12,-1,-13,True,1,-25,-8.25,8.531454406237794,11.478240283248997,-66.0
5148,0,1,3,-14,-12,1,-6,-4,True,3,-14,-3.875,6.356942211921883,7.097534783289195,-31.0
5149,-1,14,11,13,44,16,7,6,True,44,-1,13.75,13.371077528969543,18.587630295441105,110.0
5150,1,-2,-6,-2,14,0,-2,3,True,14,-6,0.75,5.9701639125619606,5.634713834792322,6.0
5151,0,4,-3,-9,-29,-10,2,4,True,4,-29,-5.125,11.063937557927298,11.548809462451096,-41.0
5152,-5,7,8,1,16,-2,-15,0,True,16,-15,1.25,9.346504312155579,8.831760866327848,10.0
5153,-8,-8,-9,5,31,13,4,-2,True,31,-9,3.25,13.625081913253114,13.152946437965905,26.0
5154,-9,-8,8,4,42,-22,-13,-4,True,42,-22,-0.25,19.48442601522706,18.227726133558185,-2.0
5155,11,19,15,4,19,0,-5,2,True,19,-5,8.125,9.140764269390795,11.795126112085448,65.0
5156,6,10,7,5,-9,7,3,2,True,10,-9,3.875,5.767829500154901,6.642665127793212,31.0
5157,0,-10,-14,-5,-14,-10,-4,28,True,28,-14,-3.625,13.689803296092837,13.308831654206164,-29.0
5158,0,0,-3,-1,-5,4,3,-13,True,4,-13,-1.875,5.356904756613521,5.350233639758174,-15.0
5159,-1,-11,0,-3,-13,-1,0,1,True,1,-13,-3.5,5.398412465054624,6.144102863722254,-28.0
5160,-26,-4,-11,0,-4,-5,-7,26,True,26,-26,-3.875,14.436437035699434,14.049021318227117,-31.0
5161,2,-2,-1,-3,-15,12,-2,-3,True,12,-15,-1.5,7.387247699341654,7.0710678118654755,-12.0
5162,3,16,-5,-5,-13,3,17,9,True,17,-13,3.125,10.588909292273685,10.386289038920495,25.0
5163,6,-2,0,-3,-11,2,-5,-30,True,6,-30,-5.375,11.13472688740693,11.720708169731042,-43.0
5164,4,2,8,10,13,9,-1,-22,True,13,-22,2.875,11.038083425771237,10.717975555113009,23.0
5165,2,7,7,-2,-6,-5,-1,-13,True,7,-13,-1.375,6.7810134093026875,6.490377492873585,-11.0
5166,1,-16,-15,-9,-14,-6,0,-26,True,1,-26,-10.625,9.00694176732591,13.560051622320618,-85.0
5167,8,-9,8,18,-12,4,-21,-1,True,18,-21,-0.625,12.715991057382375,11.911129249571596,-5.0
5168,1,-36,35,4,-22,-6,-4,-4,True,35,-36,-4.0,20.57043648401407,19.653244007033546,-32.0
5169,-13,-6,-6,-5,8,-7,-2,1,True,8,-13,-3.75,6.22781777878209,6.928203230275509,-30.0
5170,1,-1,-13,-5,7,-7,-13,14,True,14,-13,-2.125,9.433034657900015,9.076067430335673,-17.0
5171,-1,1,-1,17,16,9,9,6,True,17,-1,7.0,7.111359122659224,9.656603957913983,56.0
5172,4,12,-6,-6,6,0,6,15,True,15,-6,3.875,7.642690251849428,8.131727983645296,31.0
5173,-2,5,7,2,44,-8,0,7,True,44,-8,6.875,15.82437089699664,16.320998743949463,55.0
5174,2,-8,-17,-4,-8,6,-10,5,True,6,-17,-4.25,8.048957341526558,8.645808232895291,-34.0
5175,4,0,-12,-16,-27,-6,1,-1,True,4,-27,-7.125,10.534806256269873,12.160386507015309,-57.0
5176,2,9,-2,-9,-4,3,5,-7,True,9,-9,-0.375,6.186101934405635,5.798706752371601,-3.0
5177,-6,1,-5,-21,-23,-19,1,8,True,8,-23,-8.0,11.625096005747958,13.5,-64.0
5178,-1,-7,0,7,50,27,7,-7,True,50,-7,9.5,19.654152596479815,20.694202086574876,76.0
5179,4,12,47,6,-3,0,3,1,True,47,-3,8.75,16.086818028613187,17.406895185529212,70.0
5180,0,-5,-9,6,-3,-12,3,-6,True,6,-12,-3.25,6.041522986797286,6.519202405202649,-26.0
5181,-12,0,13,9,15,3,0,3,True,15,-12,3.875,8.592978861505811,8.923284148787374,31.0
5182,-1,3,7,-1,-10,-3,-4,1,True,7,-10,-1.0,5.0426750270636544,4.8218253804964775,-8.0
5183,4,-4,-21,4,-37,-19,-2,-10,True,4,-37,-10.625,14.24216576628308,17.040393187951974,-85.0
5184,2,-1,-6,-9,-20,-4,1,9,True,9,-20,-3.5,8.635475005547093,8.803408430829505,-28.0
5185,0,-16,-19,-9,-12,4,7,8,True,8,-19,-4.625,10.689614452488787,11.017032268265352,-37.0
5186,2,23,-7,3,-11,-4,-1,-8,True,23,-11,-0.375,10.636023693091325,9.956153875869939,-3.0
5187,0,-1,-12,-7,0,0,-4,-3,True,0,-12,-3.375,4.274091382136927,5.232112384114087,-27.0
5513,-10,-25,-15,-5,-2,-4,-1,0,True,0,-25,-7.75,8.581541653039805,11.157956802210698,-62.0
5514,-2,12,-1,-8,-1,-3,-1,1,True,12,-8,-0.375,5.655275665884277,5.303300858899107,-3.0
5515,-9,11,7,15,-2,-1,-1,-1,True,15,-9,2.375,7.909081579334697,7.770135133960027,19.0
5516,-7,-6,-3,3,-2,2,2,5,True,5,-7,-0.75,4.399675312695569,4.183300132670378,-6.0
5517,-3,-8,9,0,18,2,0,9,True,18,-8,3.375,8.210402808980463,8.388980867781259,27.0
5518,4,1,0,-1,-6,-3,-2,0,True,4,-6,-0.875,2.948970764763288,2.8939592256975564,-7.0
5519,-9,-2,2,3,-3,0,0,-5,True,3,-9,-1.75,3.918819064098629,4.06201920231798,-14.0
5520,9,0,-5,-6,0,-7,-3,-1,True,9,-7,-1.625,5.069164484550543,5.0124844139408555,-13.0
5521,6,2,1,-10,-9,-6,-3,-8,True,6,-10,-3.375,5.853875395228116,6.4323401651343035,-27.0
5522,3,-6,-3,12,40,9,0,9,True,40,-6,8.0,14.382529084175106,15.652475842498529,64.0
5523,10,5,1,1,1,-1,-2,2,True,10,-2,2.125,3.7961446607992015,4.138236339311712,17.0
5524,3,-6,-9,-12,-19,-4,1,6,True,6,-19,-5.0,8.315218406202998,9.246621004453464,-40.0
5525,-3,9,4,8,11,0,3,0,True,11,-3,4.0,4.956957592256421,6.123724356957945,32.0
5526,-25,-2,2,-1,0,0,-1,-5,True,2,-25,-4.0,8.717797887081348,9.082951062292475,-32.0
5527,22,10,0,2,9,-1,-3,-7,True,22,-7,4.0,9.258200997725515,9.539392014169456,32.0
5528,-15,-12,-6,-7,-8,5,0,10,True,10,-15,-4.125,8.50944853005847,8.965210538520553,-33.0
5529,6,6,0,3,5,3,1,1,True,6,0,3.125,2.3566016694748027,3.824264635194589,25.0
5530,6,4,2,3,6,-1,-6,-12,True,6,-12,0.25,6.341473465550866,5.937171043518958,2.0
5531,-10,3,-3,-6,1,-3,-4,-1,True,3,-10,-2.875,4.051013982414068,4.756574397610112,-23.0
5532,4,-3,2,5,-8,-1,0,5,True,5,-8,0.5,4.503966505838413,4.242640687119285,4.0
5533,5,-4,-3,-2,2,-7,-1,5,True,5,-7,-0.625,4.307385683749649,4.077376607575022,-5.0
5534,-5,-6,-8,-5,-25,8,3,-1,True,8,-25,-4.875,9.701803955966128,10.301698889018258,-39.0
5535,-2,4,8,4,2,-1,0,5,True,8,-2,2.5,3.3806170189140663,4.031128874149275,20.0
5536,-10,-16,-3,0,4,-3,-4,-14,True,4,-16,-5.75,6.943650748294136,8.674675786448736,-46.0
5537,-1,-2,-3,-1,1,7,1,-5,True,7,-5,-0.375,3.583194903195431,3.3726843908080104,-3.0
5538,-15,-3,-5,1,7,0,-1,6,True,7,-15,-1.25,6.902380541730305,6.576473218982953,-10.0
5539,19,0,-7,-7,-7,-5,-1,6,True,19,-7,-0.25,9.019819447036777,8.440971508067067,-2.0
5540,-8,-2,4,-1,9,2,-4,-7,True,9,-8,-0.875,5.718079098038831,5.4198708471697,-7.0
5541,-7,-2,0,-2,7,1,4,7,True,7,-7,1.0,4.840306956027833,4.636809247747852,8.0
5542,19,-3,-7,-6,-9,-5,-2,11,True,19,-9,-0.25,9.895886591335383,9.260129588726068,-2.0
5543,-16,15,1,-7,-4,-4,1,-2,True,15,-16,-2.0,8.750510189207745,8.426149773176359,-16.0
5544,8,2,-6,0,-1,1,-3,-3,True,8,-6,-0.25,4.200340122282616,3.9370039370059056,-2.0
5545,-2,1,1,1,10,-2,-1,3,True,10,-2,1.375,3.8890872965260113,3.8890872965260113,11.0
5546,2,0,-4,0,0,0,-3,2,True,2,-4,-0.375,2.1339098923270936,2.03100960115899,-3.0
5547,11,3,-2,-3,1,-1,0,-10,True,11,-10,-0.125,5.914570386523678,5.533985905294664,-1.0
5548,3,-10,-5,-1,-9,-9,-2,4,True,4,-10,-3.625,5.50162313711664,6.294839156007086,-29.0
5549,1,0,-1,1,6,7,2,-9,True,7,-9,0.875,4.882549100038392,4.650268809434569,7.0
5550,6,5,1,0,-4,-11,-9,-6,True,6,-11,-2.25,6.273527146441853,6.284902544988268,-18.0
5551,1,-5,-1,-17,-40,-24,8,1,True,8,-40,-9.625,16.10623215670612,17.878059178781125,-77.0
5552,-13,0,-1,-2,-4,1,3,3,True,3,-13,-1.625,5.180664601601392,5.111262075065218,-13.0
5553,-18,-9,3,-4,-8,0,-1,-7,True,3,-18,-5.5,6.56832224718437,8.246211251235321,-44.0
5554,6,7,-2,1,6,13,-1,2,True,13,-2,4.0,4.956957592256421,6.123724356957945,32.0
5555,12,6,4,7,-3,6,2,1,True,12,-3,4.375,4.50198368975912,6.072478900745559,35.0
5556,-4,-4,-2,-3,-25,-37,-4,0,True,0,-37,-9.875,13.49536957626578,16.027320424824605,-79.0
5557,-14,-5,-5,11,67,40,-8,0,True,67,-14,10.75,28.272904747428107,28.548204847240395,86.0
5558,16,10,-1,0,-1,-3,-5,19,True,19,-5,4.375,9.257236551554064,9.701803955966128,35.0
5559,-20,6,18,5,-15,-19,-6,-9,True,18,-20,-5.0,13.564659966250536,13.638181696985855,-40.0
5560,-11,-6,-4,0,9,15,2,3,True,15,-11,1.0,8.315218406202998,7.842193570679061,8.0
5561,20,1,-7,-3,0,9,4,2,True,20,-7,3.25,8.241879119992687,8.366600265340756,26.0
5562,18,1,4,0,1,24,9,7,True,24,0,8.0,8.750510189207745,11.445523142259598,64.0
5563,-24,-14,3,0,-4,-1,2,-4,True,3,-24,-5.25,9.238892945431441,10.111874208078342,-42.0
5564,40,12,0,3,28,32,-1,2,True,40,-1,14.5,16.40557396566353,21.11279233071741,116.0
5565,-1,-20,-6,10,15,-4,-2,-9,True,15,-20,-2.125,10.868532559642079,10.386289038920495,-17.0
5566,21,1,2,-2,-5,-13,-5,-4,True,21,-13,-0.625,9.869686635639162,9.253377761660873,-5.0
5567,24,28,6,-5,-8,5,4,4,True,28,-8,7.25,12.657578193093878,13.88344337691482,58.0
5568,-4,7,3,0,-7,-11,8,-12,True,8,-12,-2.0,7.745966692414834,7.516648189186454,-16.0
5569,3,-1,-10,-10,-21,-29,-3,3,True,3,-29,-8.5,11.538754575033526,13.738631664034086,-68.0
5570,-25,-10,-1,-4,-6,0,2,-1,True,2,-25,-5.625,8.700369450283624,9.89317946870469,-45.0
5571,0,1,-4,-3,-23,-21,-4,0,True,1,-23,-6.75,9.617692030835672,11.247221879201993,-54.0
5572,-14,7,3,1,-4,-11,-7,-4,True,7,-14,-3.625,7.089982873241453,7.558108228915487,-29.0
5573,3,-12,-5,-7,-10,0,-2,-9,True,3,-12,-5.25,5.230405611149374,7.176350047203662,-42.0
5574,-5,-29,-1,-1,-11,-13,-5,-11,True,-1,-29,-9.5,9.118270512704541,12.767145334803704,-76.0
5575,1,-20,-1,-1,1,1,1,5,True,5,-20,-1.625,7.652030542840993,7.339959127951599,-13.0
5576,-10,10,10,2,5,3,-3,-14,True,10,-14,0.375,8.798335881615015,8.23862852664204,3.0
5577,-7,-11,-5,0,-4,14,7,-1,True,14,-11,-0.875,8.025628591313847,7.558108228915487,-7.0
5578,4,-7,-7,-2,0,-4,-1,4,True,4,-7,-1.625,4.307385683749649,4.344536799245692,-13.0
5579,-1,9,9,3,-10,0,0,-2,True,9,-10,1.0,6.187545093630776,5.873670062235365,8.0
5580,-2,5,-9,-6,-3,-5,-5,-2,True,5,-9,-3.375,4.103569874424672,5.111262075065218,-27.0
5581,1,-21,-12,-3,-7,-2,-3,-2,True,1,-21,-6.125,7.180081575342402,9.089829481348922,-49.0
5582,-8,6,1,-1,-6,3,2,-3,True,6,-8,-0.75,4.713203338949605,4.47213595499958,-6.0
5583,4,24,10,2,10,0,-2,3,True,24,-2,6.375,8.314144574157945,10.056092680559383,51.0
5947,-4,5,1,-2,-4,-2,2,2,True,5,-4,-0.25,3.24037034920393,3.0413812651491097,-2.0
5948,8,-10,-6,4,-8,3,1,11,True,11,-10,0.375,7.652030542840993,7.167635593415725,3.0
5949,-5,-8,-1,-2,0,-1,-7,-5,True,0,-8,-3.625,3.020761493398643,4.596194077712559,-29.0
5950,25,2,-6,-7,3,1,-1,11,True,25,-7,3.5,10.337172865786025,10.283481900601567,28.0
5951,-6,15,6,4,-5,-3,0,0,True,15,-6,1.375,6.885543862739841,6.585969936159746,11.0
5952,-9,-6,-4,-1,13,3,3,8,True,13,-9,0.875,7.3569694847810805,6.937218462755804,7.0
5953,2,-11,-5,-1,8,-2,-2,-4,True,8,-11,-1.875,5.488624600025037,5.465802777268862,-15.0
5954,7,7,9,3,15,8,-2,7,True,15,-2,6.75,4.862392121462145,8.139410298049853,54.0
5955,-5,1,-1,5,24,7,0,9,True,24,-5,5.0,8.928285709714139,9.733961166965893,40.0
5956,-21,8,3,-7,-7,-2,1,-9,True,8,-21,-4.25,8.892211680534183,9.340770846134703,-34.0
5957,-3,2,1,-5,-5,-1,2,10,True,10,-5,0.125,4.911720676097125,4.596194077712559,1.0
5958,-5,-4,-1,2,-2,-14,-5,-11,True,2,-14,-5.0,5.237229365663817,7.0,-40.0
5959,8,-10,-3,-4,5,3,-5,0,True,8,-10,-0.75,5.897941529526576,5.5677643628300215,-6.0
5960,-3,3,-6,-3,-13,2,3,-7,True,3,-13,-3.0,5.631543812693435,6.06217782649107,-24.0
5961,21,11,0,1,-10,-3,-1,14,True,21,-10,4.125,10.232127274981902,10.422331792837916,33.0
5962,-20,11,0,0,-2,1,-1,-13,True,11,-20,-3.0,9.441549509633317,9.327379053088816,-24.0
5963,-1,-18,1,1,-3,2,1,-13,True,2,-18,-3.75,7.535629654230248,7.984359711335656,-30.0
5964,-4,-2,4,9,5,-5,-8,-43,True,9,-43,-5.5,16.20405592965627,16.1245154965971,-44.0
5965,5,8,-6,-4,-1,-3,-6,-10,True,8,-10,-2.125,5.986592162013855,5.989574275355469,-17.0
5966,-10,0,4,0,-3,0,2,12,True,12,-10,0.625,6.2091522310675735,5.841660722773962,5.0
5967,-2,-3,0,1,8,-11,-1,4,True,8,-11,-0.5,5.529143565818179,5.196152422706632,-4.0
5968,13,-6,-7,-5,15,9,-2,5,True,15,-7,2.75,8.892211680534183,8.760707733967616,22.0
5969,-1,1,1,-3,4,15,3,5,True,15,-3,3.125,5.462534733462636,5.989574275355469,25.0
5970,3,5,2,-4,-7,-17,-6,-9,True,5,-17,-4.125,7.298483208369883,7.976528066771908,-33.0
5971,0,21,17,3,-2,-2,-2,-14,True,21,-14,2.625,11.287635460348383,10.880027573494472,21.0
5972,13,-31,-18,-6,-5,-1,1,6,True,13,-31,-5.125,13.850605969208917,13.932874793092774,-41.0
5973,6,-3,1,3,-5,-1,-5,-14,True,6,-14,-2.25,6.112048990080401,6.144102863722254,-18.0
5974,-8,4,-4,-3,-8,-1,0,-13,True,4,-13,-4.125,5.383506557731945,6.509608283145768,-33.0
5975,-14,-9,2,-2,-4,0,1,0,True,2,-14,-3.25,5.574175147179049,6.144102863722254,-26.0
5976,-1,-29,-14,0,16,4,3,-4,True,16,-29,-3.125,13.399760125784768,12.918010682763812,-25.0
5977,11,14,-2,-1,-3,-2,-3,-8,True,14,-8,0.75,7.592289321598403,7.14142842854285,6.0
5978,10,10,6,12,4,1,4,2,True,12,1,6.125,4.086126352846736,7.2197645390968255,49.0
5979,10,-2,-6,-1,-11,-1,-7,-1,True,10,-11,-2.375,6.186101934405635,6.254998001598402,-19.0
5980,0,30,6,-8,-23,-4,0,-11,True,30,-23,-1.25,15.3692643192277,14.430869689661812,-10.0
5981,-5,-2,-3,-1,-5,0,3,13,True,13,-5,0.0,5.879747322073336,5.5,0.0
5982,-9,0,-4,-5,-3,5,0,13,True,13,-9,-0.375,6.802048010919736,6.373774391990981,-3.0
5983,-13,-5,-10,5,28,7,5,-9,True,28,-13,1.0,13.363062095621219,12.539936203984453,8.0
5984,18,-1,3,1,-23,6,0,7,True,18,-23,1.375,11.55035559131035,10.891510455395983,11.0
5985,-3,-5,-1,-3,-34,-3,4,8,True,8,-34,-4.625,12.637105229103245,12.693502274786104,-37.0
5986,-2,1,-1,-6,3,7,2,-6,True,7,-6,-0.25,4.464142854857069,4.183300132670378,-2.0
5987,6,14,4,6,19,1,-11,-14,True,19,-14,3.125,11.243251944420452,10.971554128745845,25.0
5988,18,4,2,-2,-24,-16,-6,-14,True,18,-24,-4.75,13.263806822649801,13.285330255586423,-38.0
5989,-9,5,3,-6,-2,-3,5,8,True,8,-9,0.125,6.010407640085654,5.623610939600996,1.0
5990,2,-1,-3,4,15,-4,-7,-2,True,15,-7,0.5,6.782329983125268,6.363961030678928,4.0
5991,-11,0,-4,-7,-12,-1,1,8,True,8,-12,-3.25,6.670832032063167,7.035623639735144,-26.0
5992,-9,-7,4,-1,34,6,4,29,True,34,-9,7.5,15.793307805161382,16.56804152578089,60.0
5993,9,9,0,-2,1,-3,-4,0,True,9,-4,1.25,5.063877678504601,4.898979485566356,10.0
5994,-11,1,1,1,10,-4,3,3,True,10,-11,0.5,6.047431568147635,5.678908345800274,4.0
5995,-5,-10,-5,-7,-2,-5,-3,-4,True,-2,-10,-5.125,2.4748737341529163,5.623610939600996,-41.0
5996,-4,-3,3,5,8,4,-1,-1,True,8,-4,1.375,4.240535680446853,4.198213905936666,11.0
5997,8,3,1,0,-8,-4,-3,-1,True,8,-8,-0.5,4.810702354423639,4.527692569068709,-4.0
5998,-12,32,5,2,-7,-2,0,-9,True,32,-12,1.125,13.736681861768094,12.89864333951443,9.0
5999,3,-13,-7,3,3,-17,-5,-12,True,3,-17,-5.625,8.016723591521485,9.374166629626338,-45.0
6000,5,7,-1,-4,-11,-4,2,27,True,27,-11,2.625,11.375883011252984,10.960155108391486,21.0
6001,-11,-22,-3,1,2,7,5,-10,True,7,-22,-3.875,9.80433577556379,9.956153875869939,-31.0
6002,16,1,-4,-1,-9,-1,1,-20,True,16,-20,-2.125,10.148011768673845,9.72753822917186,-17.0
6003,3,-7,-1,2,14,4,-5,5,True,14,-7,1.875,6.512350903146596,6.373774391990981,15.0
6004,-1,-8,-2,1,5,7,2,7,True,7,-8,1.375,5.097268175909804,4.962358310319802,11.0
6005,-1,5,-1,-5,-2,4,3,6,True,6,-5,1.125,3.9074105418879577,3.824264635194589,9.0
6006,2,-9,-3,-2,4,1,-2,-1,True,4,-9,-1.25,3.918819064098629,3.872983346207417,-10.0
6007,-8,-17,-4,-2,-10,-7,-7,-27,True,-2,-27,-10.25,8.102027964828135,12.747548783981962,-82.0
6008,-4,2,5,-1,0,6,2,4,True,6,-4,1.75,3.3273756282434617,3.570714214271425,14.0
6009,2,11,-3,-3,-5,0,0,9,True,11,-5,1.375,5.7802001942592165,5.578978401105349,11.0
6010,11,-11,-3,-3,-4,1,-3,-14,True,11,-14,-3.25,7.535629654230248,7.762087348130012,-26.0
6011,-9,7,14,1,18,5,8,23,True,23,-9,8.375,10.056092680559383,12.59464171781,67.0
6012,-2,7,-4,-1,-1,-8,-3,-1,True,7,-8,-1.625,4.2067123233504535,4.257346591481601,-13.0
6013,-12,-15,0,-1,1,-11,-3,-1,True,1,-15,-5.25,6.341473465550866,7.92148975887743,-42.0
6014,-5,2,1,-2,-5,-5,-4,-16,True,2,-16,-4.25,5.496752287877426,6.670832032063167,-34.0
6015,36,18,-13,-4,-1,2,-5,-21,True,36,-21,1.5,17.96027362184186,16.867127793433,12.0
6016,-11,-18,-23,-4,-10,-4,-3,-12,True,-3,-23,-10.625,7.130167299179291,12.544919290294377,-85.0
6017,31,-2,-2,0,-5,0,-3,15,True,31,-5,4.25,12.441290700153031,12.389511693363866,34.0
6018,-4,-27,-6,0,-1,-24,-10,4,True,4,-27,-8.5,11.313708498984761,13.573871960498227,-68.0
6019,-8,25,7,1,-5,-2,-1,-9,True,25,-9,1.0,10.967484410096706,10.307764064044152,8.0
6020,-14,-5,2,-8,-14,3,8,20,True,20,-14,-1.0,11.64964745021435,10.943034314119645,-8.0
6021,-5,-4,7,5,5,20,8,-4,True,20,-5,4.0,8.383657572069263,8.803408430829505,32.0
6022,-7,3,2,-13,-35,2,2,2,True,3,-35,-5.5,13.234154946306814,13.546217184144066,-44.0
6023,-8,-12,-7,-4,-32,3,10,7,True,10,-32,-5.375,13.222680731012366,13.486103959261177,-43.0
6024,-5,9,8,-10,-12,-3,1,0,True,9,-12,-1.5,7.615773105863909,7.280109889280518,-12.0
6025,-6,-5,-5,8,11,-15,-6,2,True,11,-15,-2.0,8.48528137423857,8.18535277187245,-16.0
6026,3,-1,4,5,-12,-26,-6,4,True,5,-26,-3.625,10.809222252978506,10.741275529470418,-29.0
6027,-10,-4,0,0,30,4,-3,0,True,30,-10,2.125,11.981384370287577,11.407234546549834,17.0
6320,-1,2,-3,-6,-5,-2,-2,-1,True,2,-6,-2.25,2.4928469095164494,3.24037034920393,-18.0
6321,-5,1,7,5,4,0,-3,-4,True,7,-5,0.625,4.438065859293728,4.198213905936666,5.0
6322,1,5,12,6,1,1,-1,0,True,12,-1,3.125,4.323936698360485,5.111262075065218,25.0
6323,-2,-5,-5,-3,-2,-3,-2,-1,True,-1,-5,-2.875,1.4577379737113252,3.181980515339464,-23.0
6324,2,8,-2,-3,0,1,-1,-3,True,8,-3,0.25,3.615443067098218,3.391164991562634,2.0
6325,2,-3,0,-2,-8,0,0,0,True,2,-8,-1.375,3.0676887530703443,3.181980515339464,-11.0
6326,2,4,8,3,2,0,-2,1,True,8,-2,2.25,2.9640705601780613,3.570714214271425,18.0
6327,-1,-3,-4,-1,3,0,1,0,True,3,-4,-0.625,2.1998376563477846,2.1505813167606567,-5.0
6328,-5,-4,-9,-4,-3,-1,-2,0,True,0,-9,-3.5,2.7774602993176543,4.358898943540674,-28.0
6329,4,1,0,0,0,-2,-3,-1,True,4,-3,-0.125,2.100170061141308,1.9685019685029528,-1.0
6330,-19,-8,1,-1,-1,-2,0,0,True,1,-19,-3.75,6.75594975875762,7.3484692283495345,-30.0
6331,-2,-2,6,6,-1,0,0,-1,True,6,-2,0.75,3.3273756282434617,3.2015621187164243,6.0
6332,0,-2,0,-2,-2,-1,1,-1,True,1,-2,-0.875,1.1259916264596033,1.3693063937629153,-7.0
6333,0,0,-3,-3,0,0,-1,-1,True,0,-3,-1.0,1.3093073414159542,1.5811388300841898,-8.0
6334,6,10,11,4,2,0,0,-1,True,11,-1,4.0,4.6291004988627575,5.894913061275798,32.0
6335,1,-2,1,-1,1,0,1,-2,True,1,-2,-0.125,1.3562026818605375,1.2747548783981961,-1.0
6336,-4,-6,-6,-2,-2,-1,-2,-2,True,-1,-6,-3.125,1.9594095320493146,3.6228441865473595,-25.0
6337,-3,0,-6,-4,-1,-3,-5,-3,True,0,-6,-3.125,1.9594095320493146,3.6228441865473595,-25.0
6338,-3,-14,-13,-2,-1,1,-1,2,True,2,-14,-3.875,6.151364540838538,6.937218462755804,-31.0
6339,-5,-9,-3,-2,-1,2,0,1,True,2,-9,-2.125,3.563204817496262,3.952847075210474,-17.0
6340,2,5,7,0,0,0,-2,1,True,7,-2,1.625,2.9730936268953445,3.2210246816812815,13.0
6341,-5,-3,1,2,0,0,1,0,True,2,-5,-0.5,2.3299294900428698,2.23606797749979,-4.0
6342,3,3,-1,-2,-2,-1,2,0,True,3,-2,0.25,2.1213203435596424,2.0,2.0
6343,2,5,4,0,-1,-1,0,0,True,5,-1,1.125,2.295181287579947,2.4238399287081647,9.0
6344,-2,-4,-4,-1,-1,-2,-2,-1,True,-1,-4,-2.125,1.2464234547582247,2.4238399287081647,-17.0
6345,-3,-4,-5,-2,-2,-1,-1,1,True,1,-5,-2.125,1.8850918886280925,2.7613402542968153,-17.0
6346,-8,-5,-9,-3,-2,-2,-3,1,True,1,-9,-3.875,3.3139316313320126,4.962358310319802,-31.0
6347,0,-2,-4,0,0,-1,0,-3,True,0,-4,-1.25,1.5811388300841898,1.9364916731037085,-10.0
6348,0,-4,-12,-3,0,0,0,-4,True,0,-12,-2.875,4.120939559996343,4.808846015417836,-23.0
6349,15,17,0,-6,-1,0,-2,-1,True,17,-6,2.75,8.413424646700907,8.336666000266533,22.0
6350,18,11,-8,-3,0,-1,-2,-3,True,18,-8,1.5,8.5690472882679,8.154753215150045,12.0
6351,-3,-11,-1,3,-1,-1,1,-1,True,3,-11,-1.75,4.131758532565591,4.242640687119285,-14.0
6352,-1,-11,-8,-3,-1,-1,-2,0,True,0,-11,-3.375,3.9618718519695424,5.0124844139408555,-27.0
6353,3,15,15,1,1,-1,-1,-2,True,15,-2,3.875,7.039429765866794,7.640353394968063,31.0
6354,0,-18,2,-1,0,0,2,0,True,2,-18,-1.875,6.599512969043354,6.45174395028197,-15.0
6355,-3,-4,-3,0,0,-2,-2,-2,True,0,-4,-2.0,1.4142135623730951,2.3979157616563596,-16.0
6356,1,5,5,0,-3,-2,0,-1,True,5,-3,0.625,2.9730936268953445,2.850438562747845,5.0
6357,-6,-6,-7,-1,-2,-1,-1,2,True,2,-7,-2.75,3.1959796173138706,4.06201920231798,-22.0
6358,-1,8,0,1,-1,0,-1,-1,True,8,-1,0.625,3.0676887530703443,2.9368350311176825,5.0
6359,0,9,6,0,-1,0,1,-2,True,9,-2,1.625,3.814914340921881,3.9210967853395307,13.0
6360,-1,2,7,1,-2,-1,-1,-1,True,7,-2,0.5,2.9277002188455996,2.7838821814150108,4.0
6361,-2,0,-3,-3,-1,-2,-5,-2,True,0,-5,-2.25,1.4880476182856899,2.6457513110645907,-18.0
6362,-4,6,8,0,3,-1,-1,-3,True,8,-4,1.0,4.27617987059879,4.123105625617661,8.0
6363,0,-3,3,0,-1,-2,-2,0,True,3,-3,-0.625,1.8468119248354136,1.8371173070873836,-5.0
6364,-3,-7,-2,2,1,0,-2,-1,True,2,-7,-1.5,2.7774602993176543,3.0,-12.0
6365,1,0,-6,-3,-2,-1,0,-2,True,1,-6,-1.625,2.1998376563477846,2.622022120425379,-13.0
6366,1,-8,-2,-3,-3,0,3,1,True,3,-8,-1.375,3.420004177106889,3.48209706929603,-11.0
6367,1,2,7,-6,0,-1,-1,1,True,7,-6,0.375,3.6228441865473595,3.409545424246464,3.0
6368,-2,1,-2,-1,-1,-3,-2,0,True,1,-3,-1.25,1.2817398889233114,1.7320508075688772,-10.0
6369,13,-6,-10,-3,-1,1,-1,-10,True,13,-10,-2.125,7.376361859732363,7.2197645390968255,-17.0
6370,-16,2,4,3,1,0,1,-3,True,4,-16,-1.0,6.414269805898185,6.082762530298219,-8.0
6371,-1,1,-1,4,3,-1,0,8,True,8,-1,1.625,3.2043497223082786,3.409545424246464,13.0
6372,-11,-4,-8,-3,-6,0,0,-17,True,0,-17,-6.125,5.792544469278714,8.177713616898062,-49.0
6373,-44,-8,-3,-1,-1,-1,-7,-21,True,-1,-44,-10.75,15.011900041538475,17.684739183827393,-86.0
6374,-4,-1,1,1,-1,-1,-1,8,True,8,-4,0.25,3.494894235064305,3.278719262151,2.0
6375,10,2,5,4,2,1,3,11,True,11,1,4.75,3.770183777256185,5.916079783099616,38.0
6376,16,-8,-5,-4,-1,-1,-4,-6,True,16,-8,-1.625,7.501190381723233,7.202430145443967,-13.0
6377,3,-1,-5,-4,-2,-1,-1,7,True,7,-5,-0.5,3.854496446637726,3.640054944640259,-4.0
6378,4,1,-1,0,-1,0,1,3,True,4,-1,0.875,1.807721533549109,1.9039432764659772,7.0
6379,16,0,-4,1,-1,-2,-3,-4,True,16,-4,0.375,6.566962768281849,6.154266812545585,3.0
6380,-12,0,-3,-2,-1,-1,1,14,True,14,-12,-0.5,7.111359122659224,6.670832032063167,-4.0
6381,-14,1,3,1,-1,0,-1,-12,True,3,-14,-2.875,6.401729676981281,6.642665127793212,-23.0
6382,12,-2,-8,-2,-1,-2,-3,6,True,12,-8,0.0,6.164414002968976,5.766281297335398,0.0
6383,5,-4,-3,-3,-1,0,1,9,True,9,-4,0.5,4.47213595499958,4.2130748865881795,4.0
