,EMG 1,EMG 2,EMG 3,EMG 4,EMG 5,EMG 6,EMG 7,EMG 8,Eat,Max,Min,Mean,StD,RMS,FFT
0,-4,-13,-1,-3,-1,-3,-4,2,False,2,-13,-3.375,4.373213921133975,5.303300858899107,-27.0
1,-7,-14,1,2,-2,-3,-10,1,False,2,-14,-4.0,5.80640040940045,6.745368781616021,-32.0
2,-1,2,1,0,0,-6,-14,-2,False,2,-14,-2.5,5.237229365663817,5.5,-20.0
3,-17,-33,-3,0,-1,2,8,-2,False,8,-33,-5.75,13.068500843085035,13.509256086106296,-46.0
4,-7,0,-2,0,0,1,11,-1,False,11,-7,0.25,5.007137762377681,4.69041575982343,2.0
5,6,10,3,0,0,-2,-8,1,False,10,-8,1.25,5.365231988061121,5.1720402163943,10.0
6,-9,-11,-3,-2,0,4,12,-7,False,12,-11,-2.0,7.483314773547883,7.280109889280518,-16.0
7,-4,-12,-3,-1,0,2,-1,-9,False,2,-12,-3.5,4.7509397566616824,5.656854249492381,-28.0
8,4,4,-1,-1,0,1,4,-1,False,4,-1,1.25,2.3754698783308412,2.5495097567963922,10.0
9,2,12,0,0,-3,-7,-18,-4,False,12,-18,-2.25,8.49789889998026,8.261355820929152,-18.0
10,-4,-6,-3,-1,-1,-1,-6,-3,False,-1,-6,-3.125,2.100170061141308,3.69120576505835,-25.0
11,-1,4,-1,0,-1,-2,-2,0,False,4,-2,-0.375,1.922609833384967,1.8371173070873836,-3.0
12,-4,1,2,0,-2,-2,-6,3,False,3,-6,-1.0,3.070597894314954,3.0413812651491097,-8.0
13,2,5,-1,-1,-1,-1,8,3,False,8,-1,1.75,3.4121631178560534,3.640054944640259,14.0
14,6,0,0,-1,-3,-23,-58,1,False,6,-58,-9.75,21.31230362289083,22.192341021172147,-78.0
15,-9,-4,-2,-2,0,-7,-6,-1,False,0,-9,-3.875,3.181980515339464,4.886205071423016,-31.0
16,-6,-7,-2,-1,2,11,14,-7,False,14,-7,0.5,8.088792952509753,7.582875444051551,4.0
17,-12,-31,-3,0,-1,-2,-5,-1,False,0,-31,-6.875,10.46678419709566,11.963486114005399,-55.0
18,5,4,1,0,-1,5,14,2,False,14,-1,3.75,4.713203338949605,5.787918451395113,30.0
19,6,11,0,-2,-1,1,5,-2,False,11,-2,2.25,4.652188425123938,4.898979485566356,18.0
20,-10,-11,-3,-1,-1,-2,1,-4,False,1,-11,-3.875,4.356850107261306,5.623610939600996,-31.0
21,-8,-22,-8,-5,-5,-11,-22,-11,False,-5,-22,-11.5,6.866065623255952,13.171939872319491,-92.0
22,4,10,1,-1,-1,2,2,-2,False,10,-2,1.875,3.833592123769634,4.046603514059662,15.0
23,-7,-11,-2,-1,-2,-10,3,-1,False,3,-11,-3.875,4.911720676097125,6.010407640085654,-31.0
24,1,5,2,-1,0,2,-10,3,False,5,-10,0.25,4.527692569068709,4.242640687119285,2.0
25,7,10,-2,-1,0,-7,-16,2,False,10,-16,-0.875,8.078852464481397,7.607562027351469,-7.0
26,3,18,1,0,-1,-3,2,4,False,18,-3,3.0,6.458659745975609,6.745368781616021,24.0
27,-16,-29,-5,-1,-2,3,4,-3,False,4,-29,-6.125,11.089731415013748,12.046783803156758,-49.0
28,10,7,2,1,0,2,8,3,False,10,0,4.125,3.6815175442433286,5.373546315051169,33.0
29,11,12,0,-1,0,7,8,-3,False,12,-3,4.25,5.897941529526576,6.96419413859206,34.0
30,2,1,-2,0,-1,3,3,5,False,5,-2,1.375,2.326094212561969,2.57390753524675,11.0
31,-2,-12,-2,-1,-2,-5,-10,1,False,1,-12,-4.125,4.580626906564522,5.947688626685159,-33.0
32,-1,3,-3,-1,-1,-1,3,-3,False,3,-3,-0.5,2.3299294900428698,2.23606797749979,-4.0
33,-19,-15,-4,-1,-1,-3,9,-3,False,9,-19,-4.625,8.716773649530131,9.374166629626338,-37.0
34,-3,-3,0,0,0,0,7,2,False,7,-3,0.375,3.1594529363709243,2.979093821953246,3.0
35,8,10,1,1,1,0,3,3,False,10,0,3.375,3.662064211031025,4.808846015417836,27.0
36,-15,-23,-3,-1,-2,-1,-4,-6,False,-1,-23,-6.875,7.954109450017465,10.130399794677405,-55.0
37,4,8,0,-1,1,2,12,4,False,12,-1,3.75,4.367084676466506,5.545268253204709,30.0
38,3,10,0,1,0,2,16,1,False,16,0,4.125,5.792544469278714,6.809919235938118,33.0
39,0,1,-1,-1,1,6,8,0,False,8,-1,1.75,3.3700360320244136,3.605551275463989,14.0
40,-8,0,2,0,1,-1,-6,-4,False,2,-8,-2.0,3.585685828003181,3.905124837953327,-16.0
41,-1,2,0,-1,0,0,-2,-4,False,2,-4,-0.75,1.752549163769328,1.8027756377319946,-6.0
42,0,6,2,-1,0,0,-2,0,False,6,-2,0.625,2.445841952609133,2.3717082451262845,5.0
43,6,2,0,1,-1,3,0,-1,False,6,-1,1.25,2.3754698783308412,2.5495097567963922,10.0
44,6,2,0,-1,-2,-6,-17,-1,False,6,-17,-2.375,6.823017765517793,6.809919235938118,-19.0
45,4,2,0,-1,-1,-1,5,2,False,5,-1,1.25,2.3754698783308412,2.5495097567963922,10.0
46,8,8,-1,0,-3,-14,-29,1,False,8,-29,-3.75,12.325930854445494,12.12435565298214,-30.0
47,4,8,0,-1,-1,-2,-6,-1,False,8,-6,0.125,4.189698250300543,3.9210967853395307,1.0
48,5,2,1,-1,-2,4,6,2,False,6,-2,2.125,2.7998724460742337,3.3726843908080104,17.0
49,1,-11,-4,-2,0,3,-2,2,False,3,-11,-1.625,4.438065859293728,4.458138625031752,-13.0
50,4,6,-1,-1,1,1,7,3,False,7,-1,2.5,3.0237157840738176,3.774917217635375,20.0
51,1,6,1,-1,-2,4,4,0,False,6,-2,1.625,2.774243783705493,3.0618621784789726,13.0
52,2,-6,-3,0,0,-1,3,-1,False,3,-6,-0.75,2.8157719063467175,2.7386127875258306,-6.0
53,-4,0,-2,-2,-3,-5,-4,-3,False,0,-5,-2.875,1.5526475085202969,3.2210246816812815,-23.0
54,-4,-6,-1,2,-1,0,-2,-3,False,2,-6,-1.875,2.4748737341529163,2.979093821953246,-15.0
55,-9,5,0,-1,-2,-4,-6,-8,False,5,-9,-3.125,4.611708700997618,5.326818938165629,-25.0
56,-5,-4,-1,-3,-1,3,5,1,False,5,-5,-0.625,3.461523198989551,3.29772648956823,-5.0
57,-5,-17,-1,0,0,-9,-15,3,False,3,-17,-5.5,7.445036697597361,8.874119674649425,-44.0
58,1,0,0,0,0,0,5,-3,False,5,-3,0.375,2.1998376563477846,2.091650066335189,3.0
59,10,3,0,0,-1,0,0,3,False,10,-1,1.875,3.603074084326168,3.856812155135378,15.0
60,-4,1,-4,-2,0,0,-3,-7,False,1,-7,-2.375,2.669269563007828,3.4460121880225554,-19.0
61,-1,-24,-2,0,0,0,0,2,False,2,-24,-3.125,8.50944853005847,8.551315688243536,-25.0
62,-7,-11,-1,-1,0,5,8,-2,False,8,-11,-1.125,6.0341291240504855,5.755432216610669,-9.0
63,-7,6,-1,-1,-1,0,-1,4,False,6,-7,-0.125,3.8706773124535783,3.6228441865473595,-1.0
64,-1,1,0,0,-1,2,3,-1,False,3,-1,0.375,1.5059406173077154,1.4577379737113252,3.0
65,-2,8,-1,0,-3,-15,-36,-3,False,8,-36,-6.5,13.469542361512191,14.177446878757825,-52.0
66,-10,-8,-2,-1,0,0,13,0,False,13,-10,-1.0,6.866065623255952,6.5,-8.0
67,0,8,0,0,0,4,15,1,False,15,0,3.5,5.451081150953975,6.18465843842649,28.0
68,6,9,1,-2,-1,0,-1,-2,False,9,-2,1.25,4.06201920231798,4.0,10.0
69,-8,1,-3,-1,-2,2,13,-6,False,13,-8,-0.5,6.391959234627741,6.0,-4.0
70,12,2,-1,0,-1,0,0,4,False,12,-1,2.0,4.375255094603872,4.55521678957215,16.0
71,1,3,1,2,-1,2,-1,0,False,3,-1,0.875,1.4577379737113252,1.620185174601965,7.0
72,-13,-20,-4,-2,-1,-9,-5,-2,False,-1,-20,-7.0,6.6332495807108,9.354143466934854,-56.0
73,-2,6,-1,0,-2,3,7,-4,False,7,-4,0.875,4.0155946010522525,3.856812155135378,7.0
74,3,-1,-1,2,1,7,10,1,False,10,-1,2.75,3.882193783343198,4.55521678957215,22.0
75,11,3,-3,-3,-1,1,7,1,False,11,-3,2.0,4.898979485566356,5.0,16.0
76,-7,-2,-2,-1,0,0,-7,-2,False,0,-7,-2.625,2.8252686345094435,3.724916106437835,-21.0
77,13,7,0,0,2,3,5,4,False,13,0,4.25,4.267819784654187,5.830951894845301,34.0
78,-10,-3,-3,-4,-4,-3,-13,-5,False,-3,-13,-5.625,3.77728171346236,6.642665127793212,-45.0
79,0,-2,2,-1,0,3,13,-2,False,13,-2,1.625,4.926241685388278,4.886205071423016,13.0
80,12,-6,-1,-1,-1,-3,-6,-2,False,12,-6,-1.0,5.656854249492381,5.385164807134504,-8.0
81,-5,-2,-2,0,1,-2,-9,-3,False,1,-9,-2.75,3.1052950170405937,4.0,-22.0
82,-3,-3,-2,-3,1,3,20,-4,False,20,-4,1.125,7.989949043284676,7.558108228915487,9.0
83,3,11,1,0,-1,0,-2,0,False,11,-2,1.5,4.105745103771404,4.123105625617661,12.0
84,1,4,1,-1,-1,-2,4,-4,False,4,-4,0.25,2.8157719063467175,2.6457513110645907,2.0
85,-2,9,2,0,-2,-2,0,0,False,9,-2,0.625,3.662064211031025,3.48209706929603,5.0
86,-7,-2,-2,-1,-1,0,1,-1,False,1,-7,-1.625,2.38671920665766,2.7613402542968153,-13.0
87,7,4,0,0,-1,-2,-4,-1,False,7,-4,0.375,3.50255009141299,3.29772648956823,3.0
88,6,1,0,0,-1,-3,-7,1,False,6,-7,-0.375,3.7008686239082538,3.48209706929603,-3.0
89,16,6,0,-1,-1,-1,1,4,False,16,-1,3.0,5.855400437691199,6.244997998398398,24.0
90,-8,-9,-2,0,0,-11,-24,-3,False,0,-24,-7.125,8.007808689023483,10.338036564067666,-57.0
91,-4,-2,-2,0,0,6,22,-2,False,22,-4,2.25,8.514693182963201,8.276472678623424,18.0
92,-4,-3,2,-1,0,4,5,0,False,5,-4,0.375,3.1594529363709243,2.979093821953246,3.0
93,-5,3,-4,-2,-2,-8,-8,-3,False,3,-8,-3.625,3.583194903195431,4.937104414532874,-29.0
94,-3,-4,-2,-1,-1,-1,-1,-1,False,-1,-4,-1.75,1.1649647450214349,2.0615528128088303,-14.0
95,-4,9,2,-1,0,1,2,4,False,9,-4,1.625,3.814914340921881,3.9210967853395307,13.0
96,0,2,0,-1,0,-4,-3,-1,False,2,-4,-0.875,1.8850918886280925,1.9685019685029528,-7.0
97,2,2,-1,1,-1,-4,-7,-1,False,2,-7,-1.125,3.090885217631258,3.1024184114977142,-9.0
98,-1,1,0,-1,-1,-1,0,-1,False,1,-1,-0.5,0.7559289460184544,0.8660254037844386,-4.0
99,-5,-11,-1,-2,-1,-2,-4,1,False,1,-11,-3.125,3.6815175442433286,4.650268809434569,-25.0
100,14,7,1,1,-1,1,5,3,False,14,-1,3.875,4.823676724538776,5.947688626685159,31.0
101,-13,-19,-5,-3,-1,-3,-8,-4,False,-1,-19,-7.0,6.117889458675387,9.041570660012562,-56.0
102,4,3,-2,-1,0,0,-2,0,False,4,-2,0.25,2.187627547301936,2.0615528128088303,2.0
103,-4,0,1,2,3,4,10,0,False,10,-4,2.0,4.035556254807296,4.272001872658765,16.0
104,-6,4,-3,-2,0,4,4,-2,False,4,-6,-0.125,3.7961446607992015,3.553167600887974,-1.0
105,5,13,3,1,1,4,5,-1,False,13,-1,3.875,4.257346591481601,5.5565276927232174,31.0
106,-12,-8,-6,-2,-4,-4,-6,-3,False,-2,-12,-5.625,3.2043497223082786,6.373774391990981,-45.0
107,5,2,-1,0,-1,-2,4,0,False,5,-2,0.875,2.5319388392523003,2.5248762345905194,7.0
108,-3,-1,2,1,1,1,-18,1,False,2,-18,-2.0,6.654751256486923,6.5383484153110105,-16.0
109,9,-4,-2,-2,-1,-10,-26,-3,False,9,-26,-4.875,10.00624804809475,10.553435459602717,-39.0
110,-6,-7,-2,-2,-1,-3,-6,-1,False,-1,-7,-3.5,2.449489742783178,4.183300132670378,-28.0
111,2,-7,0,1,1,4,12,3,False,12,-7,2.0,5.237229365663817,5.291502622129181,16.0
112,3,-1,1,0,-3,-2,-4,-1,False,3,-4,-0.875,2.2320714274285347,2.2638462845343543,-7.0
113,-26,-9,-1,-2,-2,-1,-4,-9,False,-1,-26,-6.75,8.447315719040152,10.392304845413264,-54.0
114,13,18,0,-1,0,0,0,1,False,18,-1,3.875,7.318030570349609,7.866066361276137,31.0
115,-13,-35,-7,-3,0,-4,-5,-2,False,0,-35,-8.625,11.350739434692601,13.679364020304453,-69.0
116,14,7,2,-1,1,1,8,5,False,14,-1,4.625,4.926241685388278,6.528782428600298,37.0
117,0,7,-2,-1,0,-2,-10,-3,False,7,-10,-1.375,4.657942525560891,4.568916720624267,-11.0
118,2,-3,-2,1,0,2,6,2,False,6,-3,1.0,2.7774602993176543,2.7838821814150108,8.0
119,-5,-23,-2,0,0,-2,-14,3,False,3,-23,-5.375,8.749489781042746,9.79157801378307,-43.0
120,-2,-2,-2,-1,-3,-1,-2,1,False,1,-3,-1.5,1.1952286093343936,1.8708286933869707,-12.0
121,4,2,-1,-1,-2,2,-2,-3,False,4,-3,-0.125,2.4748737341529163,2.318404623873926,-1.0
122,-3,-7,0,-3,-1,-1,-2,-3,False,0,-7,-2.5,2.138089935299395,3.2015621187164243,-20.0
123,12,15,3,0,0,-1,1,2,False,15,-1,4.0,6.047431568147635,6.928203230275509,32.0
124,2,8,1,2,2,-1,-5,-3,False,8,-5,0.75,3.918819064098629,3.7416573867739413,6.0
125,6,12,0,-1,-2,-12,-26,0,False,12,-26,-2.875,11.58123482190047,11.208255885729947,-23.0
126,1,1,-1,0,-2,-2,0,2,False,2,-2,-0.125,1.4577379737113252,1.3693063937629153,-1.0
127,6,4,-1,0,1,-2,-5,0,False,6,-5,0.375,3.420004177106889,3.2210246816812815,3.0
128,-13,-2,-2,-2,-2,2,10,-7,False,10,-13,-2.0,6.611677980232077,6.5,-16.0
129,-12,-14,0,-3,0,-2,-3,-4,False,0,-14,-4.75,5.311712126450916,6.87386354243376,-38.0
130,-2,-17,-3,-2,-1,-10,-14,-1,False,-1,-17,-6.25,6.453127702351561,8.689073598491383,-50.0
131,-2,-1,1,0,1,1,5,2,False,5,-2,0.875,2.100170061141308,2.1505813167606567,7.0
132,0,1,0,0,0,10,26,0,False,26,0,4.625,9.303417190934276,9.855201672213513,37.0
133,3,5,-1,-1,0,-5,-6,1,False,5,-6,-0.5,3.7032803990902057,3.5,-4.0
134,-6,-8,-4,-2,-2,5,23,0,False,23,-8,0.75,9.808888097755306,9.205976319760984,6.0
135,-3,-1,0,-1,-1,1,2,-3,False,2,-3,-0.75,1.752549163769328,1.8027756377319946,-6.0
136,12,5,-1,-1,0,0,1,1,False,12,-1,2.125,4.421942042651783,4.650268809434569,17.0
137,-1,-4,-1,-1,1,-1,-4,-2,False,1,-4,-1.625,1.6850180160122068,2.2638462845343543,-13.0
138,-2,9,1,0,0,-1,-6,0,False,9,-6,0.125,4.189698250300543,3.9210967853395307,1.0
139,-5,3,-2,-1,-5,-20,-60,-6,False,3,-60,-12.0,20.521765448977753,22.638462845343543,-96.0
140,0,-5,-1,1,-2,2,8,4,False,8,-5,0.875,3.9438016467073274,3.7914377220257753,7.0
141,6,11,0,0,0,-4,-1,-4,False,11,-4,1.0,5.0990195135927845,4.873397172404482,8.0
142,-2,3,-1,-1,-1,6,19,0,False,19,-2,2.875,7.039429765866794,7.185053931599957,23.0
143,-1,-3,1,-1,-1,-4,-14,-1,False,1,-14,-3.0,4.69041575982343,5.315072906367325,-24.0
144,3,-7,-2,-2,-1,4,8,-1,False,8,-7,0.25,4.590362575159894,4.301162633521313,2.0
145,2,6,2,0,0,2,5,-1,False,6,-1,2.0,2.449489742783178,3.0413812651491097,16.0
146,9,10,0,1,0,2,6,4,False,10,0,4.0,3.9641248358604595,5.454356057317857,32.0
147,10,18,-2,-1,-3,-12,-39,-8,False,18,-39,-4.625,16.885644790768282,16.45828059063279,-37.0
148,3,-4,-1,0,-1,4,6,0,False,6,-4,0.875,3.2265638511757806,3.142451272494134,7.0
149,-1,-3,0,2,0,6,8,2,False,8,-3,1.75,3.6547425158474374,3.840572873934304,14.0
150,-13,-23,-3,-1,-2,-8,-19,-2,False,-1,-23,-8.875,8.542958671159708,11.942570912496187,-71.0
151,-1,1,1,-1,0,3,9,7,False,9,-1,2.375,3.7392703642746743,4.227883631321941,19.0
152,10,4,0,0,1,5,18,4,False,18,0,5.25,6.112048990080401,7.762087348130012,42.0
153,-9,-17,-5,-1,-1,1,10,-1,False,10,-17,-2.875,7.863795884576716,7.897784499465657,-23.0
154,-18,-12,-3,-4,-3,-10,-33,-7,False,-3,-33,-11.25,10.194536351819607,14.747881203752625,-90.0
155,2,7,0,0,-2,2,9,2,False,9,-2,2.5,3.7032803990902057,4.272001872658765,20.0
156,-2,-24,-3,-1,-2,3,16,-2,False,16,-24,-1.875,10.92098242571872,10.386289038920493,-15.0
157,-8,8,0,-2,-2,-1,-2,-3,False,8,-8,-1.25,4.432026302139591,4.330127018922194,-10.0
158,-9,-7,-2,0,-1,-3,-4,-4,False,0,-9,-3.75,3.011881234615431,4.69041575982343,-30.0
159,-3,1,-1,-1,-1,0,1,0,False,1,-3,-0.5,1.3093073414159542,1.3228756555322954,-4.0
160,-3,1,0,-1,0,4,16,-1,False,16,-3,2.0,6.0,5.958187643906492,16.0
161,-5,-11,-2,1,1,9,20,3,False,20,-11,2.0,9.335033858688309,8.958236433584458,16.0
162,-10,3,0,-2,-1,-3,-12,-7,False,3,-12,-4.0,5.18238775634773,6.284902544988268,-32.0
163,6,10,1,2,-1,-3,8,4,False,10,-3,3.375,4.470139019889969,5.373546315051169,27.0
164,-9,-24,-6,-2,-4,-2,-7,-5,False,-2,-24,-7.375,7.130167299179291,9.943590900675671,-59.0
165,1,13,0,-3,0,3,3,-4,False,13,-4,1.625,5.2355242608275905,5.1599418601375735,13.0
166,-1,-11,-1,-1,0,-8,-24,2,False,2,-24,-5.5,8.668497975016038,9.797958971132712,-44.0
167,-3,2,-1,1,-1,0,1,0,False,2,-3,-0.125,1.5526475085202969,1.4577379737113252,-1.0
168,4,5,0,-1,-1,-6,-19,-1,False,5,-19,-2.375,7.520210863305059,7.424621202458749,-19.0
169,-6,4,0,-1,-1,-1,4,1,False,4,-6,0.0,3.2071349029490923,3.0,0.0
170,17,15,0,0,-1,3,12,-1,False,17,-1,5.625,7.707834604200734,9.144670579085941,45.0
171,5,6,-1,-2,1,0,3,3,False,6,-2,1.875,2.850438562747845,3.2596012026013246,15.0
172,-17,-5,0,1,-1,1,4,-4,False,4,-17,-2.625,6.4793628434548145,6.604922406811453,-21.0
173,-2,2,-1,-3,-2,9,22,-3,False,22,-3,2.75,8.74642784226795,8.631338250816034,22.0
174,7,7,2,0,2,0,9,4,False,9,0,3.875,3.440826312717007,5.0373604199024715,31.0
175,-6,-25,-2,0,0,-3,-5,0,False,0,-25,-5.125,8.356990230596521,9.347459547919959,-41.0
176,9,7,0,-1,-2,2,6,3,False,9,-2,3.0,4.0,4.795831523312719,24.0
177,3,5,-1,1,0,-11,-24,4,False,5,-24,-2.875,9.87692115127844,9.676001240181813,-23.0
178,5,-1,1,0,0,1,3,0,False,5,-1,1.125,1.9594095320493146,2.1505813167606567,9.0
179,5,13,-1,-1,-1,1,2,-3,False,13,-3,1.875,5.111262075065218,5.135659646043535,15.0
180,-3,2,1,-1,-1,2,2,-1,False,2,-3,0.125,1.8850918886280925,1.7677669529663689,1.0
181,-3,-12,-3,-1,0,-3,-3,-4,False,0,-12,-3.625,3.6228441865473595,4.962358310319802,-29.0
182,2,2,-1,0,0,2,2,-1,False,2,-1,0.75,1.3887301496588271,1.5,6.0
183,0,-4,0,0,-1,4,10,-3,False,10,-4,0.75,4.432026302139591,4.2130748865881795,6.0
184,-3,0,-2,0,1,-2,-2,0,False,1,-3,-1.0,1.4142135623730951,1.6583123951777,-8.0
185,-1,16,1,0,0,1,-3,-2,False,16,-3,1.5,6.023762469230862,5.830951894845301,12.0
186,2,4,1,0,-2,-1,5,2,False,5,-2,1.375,2.38671920665766,2.622022120425379,11.0
187,-4,2,-2,-1,0,-10,-29,-3,False,2,-29,-5.875,9.991961054482033,11.039701082909808,-47.0
188,1,-4,-1,0,-2,-7,-17,0,False,1,-17,-3.75,5.946187253790689,6.708203932499369,-30.0
189,7,3,0,-2,0,0,1,-1,False,7,-2,1.0,2.8284271247461903,2.8284271247461903,8.0
190,-4,-7,2,-1,0,1,4,0,False,4,-7,-0.625,3.461523198989551,3.29772648956823,-5.0
191,-2,-6,-2,0,-1,-1,-1,-1,False,0,-6,-1.75,1.8322507626258084,2.449489742783178,-14.0
192,13,13,-1,-1,-1,2,4,3,False,13,-1,4.0,5.879747322073336,6.800735254367722,32.0
193,0,3,-1,-1,1,5,11,-1,False,11,-1,2.125,4.189698250300543,4.458138625031752,17.0
194,4,1,-1,1,0,4,1,-2,False,4,-2,1.0,2.138089935299395,2.23606797749979,8.0
195,4,0,-2,-1,-1,-13,-39,1,False,4,-39,-6.375,14.080761951785746,14.633010626661896,-51.0
196,-2,1,0,-2,-1,3,6,1,False,6,-2,0.75,2.712405363721075,2.6457513110645907,6.0
197,-11,-5,-4,-3,-1,1,7,-4,False,7,-11,-2.5,5.18238775634773,5.454356057317857,-20.0
198,1,6,-1,-1,-1,-4,-2,-3,False,6,-4,-0.625,3.0676887530703443,2.9368350311176825,-5.0
199,10,12,-1,-1,0,1,4,0,False,12,-1,3.125,5.139135558215436,5.733672470589857,25.0
200,4,-7,-2,-2,0,2,2,-4,False,4,-7,-0.875,3.603074084326168,3.48209706929603,-7.0
201,-3,-2,-1,-1,1,1,7,0,False,7,-3,0.25,3.0589447293376937,2.8722813232690143,2.0
202,-4,6,-1,0,-1,1,7,-2,False,7,-4,0.75,3.845219666769934,3.6742346141747673,6.0
203,-6,-6,-1,-2,-1,-7,-11,-4,False,-1,-11,-4.75,3.4537764010675946,5.744562646538029,-38.0
204,-1,-6,-3,-1,-1,3,17,1,False,17,-6,1.125,6.937218462755804,6.585969936159746,9.0
205,-4,-4,-3,-1,-1,2,3,0,False,3,-4,-1.0,2.6186146828319083,2.6457513110645907,-8.0
206,5,4,0,-1,-1,-6,-6,1,False,5,-6,-0.5,4.035556254807296,3.8078865529319543,-4.0
207,4,0,-4,-1,-2,-1,-13,-8,False,4,-13,-3.125,5.249149590988185,5.820223363411408,-25.0
208,-16,-10,-3,-1,-1,-2,3,-10,False,3,-16,-5.0,6.324555320336759,7.745966692414834,-40.0
209,-6,-5,1,0,-2,-5,-6,-2,False,1,-6,-3.125,2.748376143938713,4.046603514059662,-25.0
210,11,-8,-1,-1,0,-9,-17,2,False,11,-17,-2.875,8.408116826699578,8.374067112222113,-23.0
211,-19,-5,-3,-2,-1,0,4,-1,False,4,-19,-3.375,6.823017765517793,7.2197645390968255,-27.0
212,-15,-14,-3,-1,1,0,0,-6,False,1,-15,-4.75,6.408699444616557,7.648529270389178,-38.0
213,13,11,1,1,-3,5,21,4,False,21,-3,6.625,7.854707414756362,9.89317946870469,53.0
214,0,6,-1,2,-1,-6,-10,2,False,6,-10,-1.0,4.985693819032899,4.769696007084728,-8.0
215,-11,-4,0,0,0,6,16,-2,False,16,-11,0.625,7.836498853806736,7.3569694847810805,5.0
216,-2,-3,0,-2,0,0,-2,-1,False,0,-3,-1.25,1.1649647450214349,1.6583123951777,-10.0
217,3,12,1,1,-1,3,9,-1,False,12,-1,3.375,4.718883039751796,5.5565276927232174,27.0
218,1,-3,-1,-1,-1,3,-2,-3,False,3,-3,-0.875,2.03100960115899,2.091650066335189,-7.0
219,-3,-14,1,-1,0,2,7,6,False,7,-14,-0.25,6.497252166438187,6.082762530298219,-2.0
220,6,3,1,0,-1,-2,-4,4,False,6,-4,0.875,3.3139316313320126,3.2210246816812815,7.0
221,-5,0,0,0,0,2,7,-1,False,7,-5,0.375,3.3354160160315836,3.142451272494134,3.0
222,-13,-5,-2,-1,-1,1,4,-3,False,4,-13,-2.5,5.0142653642240695,5.315072906367325,-20.0
223,3,1,-2,-2,-2,-20,-66,-1,False,3,-66,-11.125,23.26516402570283,24.441256105200484,-89.0
224,7,11,-2,-2,0,-1,1,-3,False,11,-3,1.375,4.983902658989812,4.860555523805895,11.0
225,3,6,1,2,0,3,6,-2,False,6,-2,2.375,2.774243783705493,3.517811819867572,19.0
226,5,-2,-3,-1,-1,-6,-8,-2,False,5,-8,-2.25,3.845219666769934,4.242640687119285,-18.0
227,-10,-12,-2,-2,1,0,3,-3,False,3,-12,-3.125,5.249149590988185,5.820223363411408,-25.0
228,1,-3,1,0,-1,1,10,8,False,10,-3,2.125,4.4860896112315904,4.703721930556695,17.0
229,-6,-7,-3,-1,-3,-2,3,-5,False,3,-7,-3.0,3.1622776601683795,4.2130748865881795,-24.0
230,0,6,2,-2,0,1,-6,-2,False,6,-6,-0.125,3.48209706929603,3.2596012026013246,-1.0
231,8,3,-2,-2,-1,-9,-7,-1,False,8,-9,-1.375,5.31675249968034,5.1599418601375735,-11.0
232,-6,1,-3,0,-2,-2,-2,-3,False,1,-6,-2.125,2.100170061141308,2.8939592256975564,-17.0
233,4,3,0,-1,2,8,18,2,False,18,-1,4.5,6.09449400220044,7.262919523166975,36.0
234,-10,-2,-1,0,-1,-4,0,-1,False,0,-10,-2.375,3.3354160160315836,3.9210967853395307,-19.0
235,-9,-2,-1,0,0,1,-1,-2,False,1,-9,-1.75,3.1052950170405937,3.391164991562634,-14.0
236,0,4,1,-1,-2,-1,-3,0,False,4,-3,-0.25,2.1213203435596424,2.0,-2.0
237,-3,-1,0,0,-1,2,-5,-3,False,2,-5,-1.375,2.1998376563477846,2.4748737341529163,-11.0
238,-20,-7,-3,-1,-3,-1,-3,-7,False,-1,-20,-5.625,6.254998001598402,8.116341540373963,-45.0
239,-1,-6,-1,-2,-2,1,1,-6,False,1,-6,-2.0,2.7255405754769875,3.24037034920393,-16.0
240,9,2,0,-1,-1,-4,-10,3,False,9,-10,-0.25,5.496752287877426,5.1478150704935,-2.0
241,-9,-37,-7,-2,-2,-6,-12,-4,False,-2,-37,-9.875,11.482128971331305,14.590236461414873,-79.0
242,-4,-2,0,-1,1,1,5,-3,False,5,-4,-0.375,2.8252686345094435,2.669269563007828,-3.0
243,13,6,2,0,0,0,3,4,False,13,0,3.5,4.4077853201547175,5.408326913195984,28.0
244,16,-6,-2,-2,-3,-3,-10,1,False,16,-10,-1.125,7.642690251849428,7.237057413065064,-9.0
245,7,16,1,0,-2,3,6,-2,False,16,-2,3.625,6.022280061808579,6.698880503487131,29.0
246,1,9,2,2,-2,0,2,1,False,9,-2,1.875,3.181980515339464,3.517811819867572,15.0
247,2,9,-1,0,0,2,9,3,False,9,-1,3.0,3.9279220242478625,4.743416490252569,24.0
248,-4,-4,-2,-2,1,1,6,1,False,6,-4,-0.375,3.3354160160315836,3.142451272494134,-3.0
249,12,7,2,0,1,4,9,3,False,12,0,4.75,4.200340122282616,6.164414002968976,38.0
250,-3,-7,-3,1,0,3,5,-1,False,5,-7,-0.625,3.77728171346236,3.588175023601831,-5.0
251,9,8,1,0,-1,-1,-2,2,False,9,-2,2.0,4.208834246473209,4.415880433163923,16.0
252,-22,-12,-3,-2,-2,-2,-12,-2,False,-2,-22,-7.125,7.472568883207816,9.981232388838565,-57.0
253,-1,4,0,-1,-1,-6,-8,-3,False,4,-8,-2.0,3.7032803990902057,4.0,-16.0
254,3,4,-2,-1,-2,-4,-4,-3,False,4,-4,-1.125,3.044315545875155,3.0618621784789726,-9.0
255,-15,2,1,-1,1,3,5,-2,False,5,-15,-0.75,6.158617655657106,5.809475019311125,-6.0
256,-1,-1,2,1,1,-4,-5,-4,False,2,-5,-1.375,2.669269563007828,2.850438562747845,-11.0
257,1,-5,-4,-1,-1,0,-2,-3,False,1,-5,-1.875,2.03100960115899,2.669269563007828,-15.0
258,1,-18,-2,-3,0,0,6,4,False,6,-18,-1.5,7.28991475552747,6.98212002188447,-12.0
259,0,4,3,1,0,2,5,0,False,5,0,1.875,1.9594095320493146,2.622022120425379,15.0
260,-3,-2,0,1,1,0,-6,-1,False,1,-6,-1.25,2.3754698783308412,2.5495097567963922,-10.0
261,9,4,0,0,-1,1,15,7,False,15,-1,4.375,5.604526232048012,6.8282501418738315,35.0
262,-4,-16,-3,-3,-1,-1,-6,0,False,0,-16,-4.25,5.1199888392735495,6.4031242374328485,-34.0
263,3,12,1,1,-1,7,14,-2,False,14,-2,4.375,5.9985117201805025,7.115124735378854,35.0
264,8,13,1,0,-2,-3,1,-1,False,13,-3,2.125,5.514591035218685,5.578978401105349,17.0
265,5,3,-1,-2,-1,-1,-3,-3,False,5,-3,-0.375,2.8753881725529062,2.715695122800054,-3.0
266,-7,1,0,-1,-2,1,7,0,False,7,-7,-0.125,3.8706773124535783,3.6228441865473595,-1.0
267,-2,-12,-4,-1,-1,-2,-8,-1,False,-1,-12,-3.875,4.051013982414068,5.4198708471697,-31.0
268,4,6,-1,0,0,0,3,0,False,6,-1,1.5,2.5071326821120348,2.7838821814150108,12.0
269,-7,2,0,-1,1,-4,-11,-7,False,2,-11,-3.375,4.627171304989074,5.488624600025037,-27.0
270,1,2,-2,0,0,4,8,1,False,8,-2,1.75,3.0589447293376937,3.3541019662496847,14.0
271,-7,-6,0,0,-1,-1,3,-4,False,3,-7,-2.0,3.3806170189140663,3.7416573867739413,-16.0
272,-9,-8,-3,-2,-1,-4,-8,-4,False,-1,-9,-4.875,3.044315545875155,5.645794895318107,-39.0
273,-5,11,1,-1,-1,-5,-26,-3,False,11,-26,-3.625,10.377688980280174,10.362190888031353,-29.0
274,5,0,1,1,-2,-3,-11,3,False,5,-11,-0.75,4.862392121462145,4.6097722286464435,-6.0
275,-8,-4,-5,-3,-1,-2,3,-3,False,3,-8,-2.875,3.181980515339464,4.138236339311712,-23.0
276,-7,-6,-2,0,1,0,-2,0,False,1,-7,-2.0,2.9760952365713798,3.427827300200522,-16.0
277,5,3,2,-2,-1,-4,-10,5,False,5,-10,-0.25,5.1199888392735495,4.795831523312719,-2.0
278,-2,-37,-3,-1,-1,0,3,-1,False,3,-37,-5.25,12.947696982199465,13.200378782444085,-42.0
279,3,-4,-4,-2,0,1,11,-6,False,11,-6,-0.125,5.383506557731945,5.0373604199024715,-1.0
280,1,10,1,-2,-1,-7,-21,-3,False,10,-21,-2.75,8.827716093564145,8.703447592764606,-22.0
281,-1,-8,-3,-4,-3,0,-2,0,False,0,-8,-2.625,2.615202805574687,3.588175023601831,-21.0
282,10,12,3,0,0,0,0,1,False,12,0,3.25,4.920801328471382,5.634713834792322,26.0
283,-5,-8,-2,-1,-3,-5,-12,2,False,2,-12,-4.25,4.334248987508019,5.873670062235365,-34.0
284,1,0,-2,-2,-2,3,8,-2,False,8,-2,0.5,3.5456210417116734,3.3541019662496847,4.0
285,3,3,1,1,1,0,4,-1,False,4,-1,1.5,1.6903085094570331,2.179449471770337,12.0
286,-7,7,-1,-1,0,-4,-9,-2,False,7,-9,-2.125,4.85320218294802,5.0124844139408555,-17.0
287,1,4,2,1,1,0,-8,1,False,4,-8,0.25,3.5355339059327378,3.3166247903554,2.0
288,3,17,1,0,0,0,1,-5,False,17,-5,2.125,6.424006315599101,6.373774391990981,17.0
289,5,2,-1,0,-1,-5,0,4,False,5,-5,0.5,3.1622776601683795,3.0,4.0
290,-1,0,-2,0,-1,0,1,-2,False,1,-2,-0.625,1.0606601717798212,1.1726039399558574,-5.0
291,-6,-2,-4,-3,-2,-8,-23,-6,False,-2,-23,-6.75,6.902380541730305,9.340770846134703,-54.0
292,-17,-19,-4,-4,-2,3,11,-2,False,11,-19,-4.25,9.82344135219425,10.124228365658293,-34.0
293,-9,-23,-4,-1,-1,3,15,1,False,15,-23,-2.375,10.809222252978506,10.386289038920493,-19.0
294,-3,-6,1,0,1,2,3,1,False,3,-6,-0.125,2.948970764763288,2.7613402542968153,-1.0
295,-2,1,-1,-2,0,1,0,0,False,1,-2,-0.375,1.1877349391654206,1.1726039399558574,-3.0
296,-6,-7,-2,-1,-2,-4,-3,-4,False,-1,-7,-3.625,2.0658792662827956,4.107919181288746,-29.0
297,-1,0,1,0,0,-2,0,-2,False,1,-2,-0.5,1.0690449676496976,1.118033988749895,-4.0
298,0,2,-1,-1,-1,-13,-33,-1,False,2,-33,-6.0,11.82007976767863,12.579745625409124,-48.0
299,-6,-7,-1,-1,0,0,2,1,False,2,-7,-1.5,3.251373336211726,3.391164991562634,-12.0
300,8,4,-2,-2,-1,0,1,2,False,8,-2,1.25,3.4121631178560534,3.427827300200522,10.0
301,4,4,1,-1,0,4,13,1,False,13,-1,3.25,4.399675312695569,5.244044240850758,26.0
302,-4,-19,-3,-1,-2,-5,1,1,False,1,-19,-4.0,6.436503043467891,7.22841614740048,-32.0
303,-1,-2,1,0,-1,3,3,0,False,3,-2,0.375,1.8468119248354136,1.7677669529663689,3.0
304,-1,2,0,-4,0,3,7,-1,False,7,-4,0.75,3.284161123592185,3.1622776601683795,6.0
305,-9,-4,-4,-2,-1,-1,4,-3,False,4,-9,-2.5,3.664501525251617,4.242640687119285,-20.0
306,2,0,-1,0,0,0,-3,-2,False,2,-3,-0.5,1.5118578920369088,1.5,-4.0
307,-9,-11,-2,-1,0,3,8,-5,False,8,-11,-2.125,6.197637798848388,6.174544517614234,-17.0
308,12,1,-2,-1,-1,-5,-12,-1,False,12,-12,-1.125,6.664136424602537,6.334429729659964,-9.0
309,12,6,2,0,1,7,7,-1,False,12,-1,4.25,4.464142854857069,5.958187643906492,34.0
310,-3,4,-1,0,-1,4,11,1,False,11,-3,1.875,4.421942042651783,4.541475531146237,15.0
311,3,6,3,1,0,1,8,2,False,8,0,3.0,2.7255405754769875,3.9370039370059056,24.0
312,4,10,-1,-1,1,-3,-14,2,False,10,-14,-0.25,6.840008354213778,6.4031242374328485,-2.0
313,-2,1,-1,0,-2,-12,-26,1,False,1,-26,-5.125,9.417878135303544,10.191908555319754,-41.0
314,-5,0,-2,0,-1,-1,8,0,False,8,-5,-0.125,3.6815175442433286,3.4460121880225554,-1.0
315,2,3,-1,0,-1,0,4,1,False,4,-1,1.0,1.8516401995451028,2.0,8.0
316,-4,-1,-2,-1,-2,-1,-4,1,False,1,-4,-1.75,1.6690459207925603,2.345207879911715,-14.0
317,4,10,0,0,-1,-2,0,-2,False,10,-2,1.125,4.051013982414068,3.952847075210474,9.0
318,-3,-4,-1,-1,1,1,-2,0,False,1,-4,-1.125,1.807721533549109,2.03100960115899,-9.0
319,-7,-9,-1,0,-1,-7,-14,-6,False,0,-14,-5.625,4.779046527738113,7.185053931599957,-45.0
320,-11,1,0,-1,-1,-3,-4,0,False,1,-11,-2.375,3.8521793460696654,4.315669125408017,-19.0
321,2,2,2,0,-1,0,5,8,False,8,-1,2.25,2.9640705601780613,3.5707142142714248,18.0
322,-2,-5,-1,0,1,1,-5,-3,False,1,-5,-1.75,2.434865792722759,2.8722813232690143,-14.0
323,1,3,0,-1,-1,0,6,-2,False,6,-2,0.75,2.6049403612586386,2.5495097567963922,6.0
324,6,10,-1,-2,-2,-2,1,1,False,10,-2,1.375,4.405759217854998,4.344536799245692,11.0
325,-5,-2,-1,-1,-1,5,14,-1,False,14,-5,1.0,5.9281411203561225,5.634713834792322,8.0
326,-3,-8,-2,0,1,1,1,-3,False,1,-8,-1.625,3.113908889391045,3.3354160160315836,-13.0
327,-1,-2,1,0,-3,-6,-19,-4,False,1,-19,-4.25,6.363961030678928,7.314369419163897,-34.0
328,-8,-2,-2,0,-1,1,5,0,False,5,-8,-0.875,3.6425069859723185,3.517811819867572,-7.0
329,7,3,-1,0,-1,1,2,2,False,7,-1,1.625,2.615202805574687,2.9368350311176825,13.0
330,-1,2,-1,-2,-1,1,11,-4,False,11,-4,0.625,4.565006649971686,4.315669125408017,5.0
331,11,10,1,0,-1,-3,-4,1,False,11,-4,1.875,5.617256574927962,5.578978401105349,15.0
332,11,2,1,0,1,-1,-5,1,False,11,-5,1.25,4.496029994816062,4.387482193696061,10.0
333,-1,-8,-2,-3,-1,1,2,-1,False,2,-8,-1.625,3.020761493398643,3.2596012026013246,-13.0
334,4,1,-1,1,-1,1,6,2,False,6,-1,1.625,2.38671920665766,2.7613402542968153,13.0
335,-8,-8,-4,-1,2,3,11,-2,False,11,-8,-0.875,6.289163014946538,5.947688626685159,-7.0
336,11,11,-1,-1,0,-2,-7,1,False,11,-7,1.5,6.324555320336759,6.103277807866851,12.0
337,-4,-3,0,0,-1,-1,-3,0,False,0,-4,-1.5,1.6035674514745462,2.1213203435596424,-12.0
338,-1,-4,-1,-1,-3,0,11,-1,False,11,-4,0.0,4.6291004988627575,4.330127018922194,0.0
339,4,1,0,1,0,1,4,0,False,4,0,1.375,1.6850180160122068,2.091650066335189,11.0
340,3,-2,-1,-1,-1,-1,-11,3,False,3,-11,-1.375,4.34042460069124,4.286607049870562,-11.0
341,-3,0,0,0,0,5,12,-2,False,12,-3,1.5,4.840306956027833,4.769696007084728,12.0
342,-3,2,-1,-1,0,-3,-11,-3,False,2,-11,-2.5,3.854496446637726,4.387482193696061,-20.0
343,3,-1,-2,0,0,-1,0,-3,False,3,-3,-0.5,1.7728105208558367,1.7320508075688772,-4.0
344,-1,4,-2,-1,-1,0,-1,-4,False,4,-4,-0.75,2.2519832529192065,2.23606797749979,-6.0
345,-5,4,0,2,-1,-1,-2,-1,False,4,-5,-0.5,2.6726124191242437,2.5495097567963922,-4.0
346,-4,-1,-2,0,1,-3,-3,-1,False,1,-4,-1.625,1.6850180160122068,2.2638462845343543,-13.0
347,-16,-18,-4,-3,-3,-3,-20,-1,False,-1,-20,-8.5,7.982122882685139,11.313708498984761,-68.0
348,-8,3,-1,-1,0,2,5,-3,False,5,-8,-0.375,3.9977672339873487,3.758324094593227,-3.0
349,-10,-7,-2,-2,-1,-2,-8,-6,False,-1,-10,-4.75,3.4121631178560534,5.722761571129799,-38.0
350,-6,-4,-1,0,0,-1,1,-4,False,1,-6,-1.875,2.4748737341529163,2.979093821953246,-15.0
351,7,15,1,0,1,8,28,1,False,28,0,7.625,9.709163565563058,11.858541225631422,61.0
352,-16,-27,-1,-1,-3,-16,-53,-1,False,-1,-53,-14.75,18.21106414086934,22.533308678487497,-118.0
353,2,-1,-1,0,0,1,6,2,False,6,-1,1.125,2.295181287579947,2.4238399287081647,9.0
354,2,-1,-2,2,-1,-3,-5,2,False,2,-5,-0.75,2.6049403612586386,2.5495097567963922,-6.0
355,-7,-10,-2,-1,-4,0,-1,-1,False,0,-10,-3.25,3.5355339059327378,4.636809247747852,-26.0
356,12,11,1,-1,-1,-1,4,1,False,12,-1,3.25,5.365231988061121,5.979130371550699,26.0
357,-19,-10,-3,-2,-3,-4,-9,-1,False,-1,-19,-6.375,6.045954964153424,8.522030274529655,-51.0
358,-7,-18,-4,0,0,1,10,0,False,10,-18,-2.25,8.013381665332416,7.826237921249264,-18.0
359,5,2,1,-2,0,2,2,-4,False,5,-4,0.75,2.7645717829090897,2.692582403567252,6.0
360,9,6,0,-1,0,-5,-22,0,False,9,-22,-1.625,9.303417190934276,8.852965604812887,-13.0
361,-6,-8,-1,-1,-2,0,5,-2,False,5,-8,-1.875,3.9074105418879577,4.107919181288746,-15.0
362,-6,-1,0,0,0,-4,-11,2,False,2,-11,-2.5,4.27617987059879,4.716990566028302,-20.0
363,7,10,2,0,-1,-4,-7,2,False,10,-7,1.125,5.514591035218685,5.2796780204857185,9.0
364,-2,-10,0,-3,-1,-4,-4,-4,False,0,-10,-3.5,3.0237157840738176,4.5,-28.0
365,4,-2,-3,0,1,2,3,1,False,4,-3,0.75,2.3754698783308412,2.345207879911715,6.0
366,-8,-4,-2,-2,-1,-1,5,-4,False,5,-8,-2.125,3.6815175442433286,4.046603514059662,-17.0
367,-19,-32,-4,-2,-3,-11,-15,2,False,2,-32,-10.5,11.224972160321824,14.849242404917497,-84.0
368,-3,0,0,-1,-1,-2,-5,-1,False,0,-5,-1.625,1.6850180160122068,2.2638462845343543,-13.0
369,10,2,0,-1,1,1,4,1,False,10,-1,2.25,3.4537764010675946,3.9370039370059056,18.0
370,11,-8,-1,0,-2,-1,-1,-1,False,11,-8,-0.375,5.2355242608275905,4.911720676097125,-3.0
371,-8,-13,-2,-2,-1,6,22,-3,False,22,-13,-0.125,10.494045930907678,9.81707695803593,-1.0
372,-1,1,0,-1,0,0,1,1,False,1,-1,0.125,0.8345229603962802,0.7905694150420949,1.0
373,-1,2,-1,1,1,-2,-2,-1,False,2,-2,-0.375,1.5059406173077154,1.4577379737113252,-3.0
374,-6,-3,-3,-2,0,8,29,0,False,29,-6,2.875,11.319231422671772,10.971554128745845,23.0
375,-1,6,1,-2,-2,-2,1,4,False,6,-2,0.625,3.020761493398643,2.8939592256975564,5.0
376,0,2,-2,1,-1,2,6,-1,False,6,-2,0.875,2.5319388392523003,2.5248762345905194,7.0
377,4,11,0,-1,0,-3,-12,-2,False,11,-12,-0.375,6.4793628434548145,6.072478900745559,-3.0
378,-11,1,-2,-2,-1,-4,-9,-4,False,1,-11,-4.0,4.070801956792859,5.522680508593631,-32.0
379,10,14,-2,0,-1,-1,-7,2,False,14,-7,1.875,6.8334785118143575,6.661456297237114,15.0
380,2,-1,-2,-1,-1,-2,-7,-1,False,2,-7,-1.625,2.5035688811888406,2.850438562747845,-13.0
381,2,-5,-1,-1,-1,5,11,-1,False,11,-5,1.125,4.911720676097125,4.7302219821061255,9.0
382,-1,-10,-2,-1,-2,-3,-4,6,False,6,-10,-2.125,4.38951673226759,4.623310502226732,-17.0
383,3,-2,0,1,-1,0,-5,-1,False,3,-5,-0.625,2.326094212561969,2.2638462845343543,-5.0
384,-13,-32,-4,-3,0,-2,-5,-4,False,0,-32,-7.875,10.46678419709566,12.564831873129062,-63.0
385,1,1,0,-1,0,-3,4,0,False,4,-3,0.25,1.9820624179302297,1.8708286933869707,2.0
386,5,9,1,-1,-2,-1,5,2,False,9,-2,2.25,3.8078865529319543,4.2130748865881795,18.0
387,1,-2,1,0,0,1,6,-1,False,6,-2,0.75,2.3754698783308412,2.345207879911715,6.0
388,-3,10,2,2,0,-1,0,1,False,10,-3,1.375,3.8521793460696654,3.856812155135378,11.0
389,9,4,1,-1,-1,5,7,4,False,9,-1,3.5,3.625307868699863,4.873397172404482,28.0
390,0,8,-3,-5,-1,-1,-1,-7,False,8,-7,-1.25,4.432026302139591,4.330127018922194,-10.0
391,6,-1,-3,0,1,-2,-8,4,False,6,-8,-0.375,4.307385683749649,4.046603514059662,-3.0
392,-6,-11,-1,-1,0,-5,-18,-5,False,0,-18,-5.875,6.057757718118856,8.162413858657255,-47.0
393,4,3,-1,-1,-2,-3,-6,0,False,4,-6,-0.75,3.1959796173138706,3.082207001484488,-6.0
394,-2,1,-1,1,-1,-3,3,4,False,4,-3,0.25,2.434865792722759,2.29128784747792,2.0
395,8,12,1,-1,2,-1,-2,-1,False,12,-2,2.25,5.063877678504601,5.244044240850758,18.0
396,7,5,-3,-2,-3,-16,-44,-4,False,7,-44,-7.5,16.27443218232645,16.97056274847714,-60.0
397,-10,-6,-1,-3,-2,1,9,-4,False,9,-10,-2.0,5.5549205986353085,5.5677643628300215,-16.0
398,0,-1,0,0,1,6,7,1,False,7,-1,1.75,3.011881234615431,3.3166247903554,14.0
399,9,5,1,1,1,-2,-7,2,False,9,-7,1.25,4.6827952580239325,4.55521678957215,10.0
400,5,3,0,1,-2,-2,-12,3,False,5,-12,-0.5,5.264435935053794,4.949747468305833,-4.0
401,-2,-3,-3,-2,-2,10,27,-1,False,27,-3,3.0,10.60996835864408,10.36822067666386,24.0
402,3,7,0,-1,0,2,14,-1,False,14,-1,3.0,5.18238775634773,5.70087712549569,24.0
403,2,6,1,0,-1,-5,-12,-4,False,6,-12,-1.625,5.423164600647327,5.326818938165629,-13.0
404,-8,-7,-2,-2,-1,-2,-6,-4,False,-1,-8,-4.0,2.6726124191242437,4.716990566028302,-32.0
405,0,0,1,-1,-2,-4,-2,9,False,9,-4,0.125,3.9074105418879577,3.6571847095819483,1.0
406,-8,-3,-3,0,-1,-7,-8,-2,False,0,-8,-4.0,3.2071349029490923,5.0,-32.0
407,-4,-5,-1,1,0,-2,-8,-5,False,1,-8,-3.0,3.0237157840738176,4.123105625617661,-24.0
408,-3,0,1,-3,-1,2,6,-4,False,6,-4,-0.25,3.284161123592185,3.082207001484488,-2.0
409,-14,-7,-4,-2,-1,1,6,-5,False,6,-14,-3.25,5.897941529526576,6.4031242374328485,-26.0
410,-5,-2,-5,-2,-1,0,9,-3,False,9,-5,-1.125,4.454131308603925,4.315669125408017,-9.0
411,-3,2,0,1,0,1,2,-3,False,2,-3,0.0,2.0,1.8708286933869707,0.0
412,8,7,0,1,-1,-1,-10,0,False,8,-10,0.5,5.529143565818179,5.196152422706632,4.0
413,-3,-22,-2,-2,-1,-5,-10,-1,False,-1,-22,-5.75,7.206148168652336,8.860022573334675,-46.0
414,0,-3,1,1,0,6,18,4,False,18,-3,3.375,6.501373481262028,6.955213871621778,27.0
415,-2,2,-1,0,-2,-4,-10,-4,False,2,-10,-2.625,3.583194903195431,4.257346591481601,-21.0
416,-6,-4,0,-1,0,2,5,-4,False,5,-6,-1.0,3.585685828003181,3.5,-8.0
417,3,9,-2,1,-2,-2,-1,1,False,9,-2,0.875,3.758324094593227,3.6228441865473595,7.0
418,-6,3,-1,-1,-1,-5,-2,-4,False,3,-6,-2.125,2.850438562747845,3.409545424246464,-17.0
419,7,13,1,-1,-1,-7,-25,-3,False,13,-25,-2.0,11.161157134071205,10.63014581273465,-16.0
420,6,2,-1,0,-1,0,-1,4,False,6,-1,1.125,2.6423744732991303,2.715695122800054,9.0
421,-3,-4,-2,-1,-2,-5,-25,-4,False,-1,-25,-5.75,7.887603293414655,9.354143466934854,-46.0
422,0,-5,-2,-2,-2,4,6,-3,False,6,-5,-0.5,3.7032803990902057,3.5,-4.0
423,3,7,2,-1,2,4,16,4,False,16,-1,4.625,5.125217765408329,6.661456297237114,37.0
424,2,10,0,-1,1,-3,-5,-3,False,10,-5,0.125,4.611708700997618,4.315669125408017,1.0
425,5,5,0,-1,-1,0,4,-2,False,5,-2,1.25,2.9154759474226504,3.0,10.0
426,-4,2,1,-1,0,2,9,-2,False,9,-4,0.875,3.8706773124535783,3.724916106437835,7.0
427,-19,-16,-4,-3,-2,-2,1,-1,False,1,-19,-5.75,7.44023809142845,9.027735042633894,-46.0
428,-1,-2,-3,-1,-2,-8,-21,1,False,1,-21,-4.625,7.110103475236589,8.100925873009825,-37.0
429,-5,-14,-2,0,0,0,0,0,False,0,-14,-2.625,4.926241685388278,5.303300858899107,-21.0
430,-3,-3,-2,-3,-1,-4,-5,0,False,0,-5,-2.625,1.5979898086569353,3.020761493398643,-21.0
431,-3,0,-2,0,1,6,4,-5,False,6,-5,0.125,3.603074084326168,3.3726843908080104,1.0
432,1,-5,2,0,1,2,1,3,False,3,-5,0.625,2.445841952609133,2.3717082451262845,5.0
433,13,11,0,-1,-2,1,7,3,False,13,-2,4.0,5.68205194324324,6.652067347825035,32.0
434,-8,-17,-6,-2,-3,0,0,-6,False,0,-17,-5.25,5.574175147179049,7.399324293474371,-42.0
435,4,0,-2,0,0,-2,-4,-3,False,4,-4,-0.875,2.4748737341529163,2.4748737341529163,-7.0
436,1,2,0,0,0,1,6,-3,False,6,-3,0.875,2.5319388392523003,2.5248762345905194,7.0
437,2,2,-1,-1,-2,-6,-19,-1,False,2,-19,-3.25,6.840008354213778,7.176350047203662,-26.0
438,-7,-10,-2,-1,-1,1,5,-2,False,5,-10,-2.125,4.611708700997618,4.808846015417836,-17.0
439,3,9,0,-2,-2,4,16,-4,False,16,-4,3.0,6.697547525560595,6.946221994724902,24.0
440,-2,-3,0,0,0,-3,8,0,False,8,-3,0.0,3.505098327538656,3.278719262151,0.0
441,-5,-1,-2,0,1,-1,-3,1,False,1,-5,-1.25,2.052872551885702,2.29128784747792,-10.0
442,4,2,1,-2,-1,3,2,0,False,4,-2,1.125,2.03100960115899,2.2079402165819615,9.0
443,-6,-21,-3,-1,0,-2,6,-3,False,6,-21,-3.75,7.7781745930520225,8.18535277187245,-30.0
444,3,-1,-3,-1,-2,-2,-7,-3,False,3,-7,-2.0,2.7774602993176543,3.278719262151,-16.0
445,-5,-5,1,-2,-3,0,0,-1,False,1,-5,-1.875,2.295181287579947,2.850438562747845,-15.0
446,7,11,2,1,0,3,8,5,False,11,0,4.625,3.814914340921881,5.841660722773962,37.0
447,-3,-2,-2,0,1,-2,-9,-3,False,1,-9,-2.5,2.9760952365713798,3.7416573867739413,-20.0
448,4,6,-1,0,-1,0,7,3,False,7,-1,2.25,3.1959796173138706,3.7416573867739413,18.0
449,10,11,2,0,-1,-5,-13,4,False,11,-13,1.0,7.819389819088005,7.3824115301167,8.0
450,-4,4,0,1,0,-3,-7,-2,False,4,-7,-1.375,3.37797487937881,3.4460121880225554,-11.0
451,-6,-6,-1,-3,-1,2,15,-2,False,15,-6,-0.25,6.713525792862389,6.284902544988268,-2.0
452,-9,-12,-1,0,0,0,-4,-1,False,0,-12,-3.375,4.657942525560891,5.5113519212621505,-27.0
453,3,-2,1,-1,-1,2,5,1,False,5,-2,1.0,2.3299294900428698,2.3979157616563596,8.0
454,0,-2,-1,0,-1,2,11,4,False,11,-2,1.625,4.240535680446853,4.286607049870562,13.0
455,-2,5,-1,-2,-2,-12,-31,-5,False,5,-31,-6.25,11.055057019947283,12.083045973594572,-50.0
456,-12,-5,2,1,-2,-2,-12,-1,False,2,-12,-3.875,5.436319658424385,6.393355926272211,-31.0
457,7,-9,-1,-1,1,1,6,1,False,7,-9,0.625,4.897156609415596,4.623310502226732,5.0
458,10,7,-2,-2,0,-1,15,-4,False,15,-4,2.875,6.895909760761913,7.0622234459127675,23.0
459,-1,7,1,0,1,4,5,2,False,7,-1,2.375,2.7222627143085005,3.48209706929603,19.0
460,6,-1,1,1,0,1,-2,1,False,6,-2,0.875,2.3566016694748027,2.3717082451262845,7.0
461,-1,10,-1,0,-1,-8,-10,4,False,10,-10,-0.875,6.289163014946538,5.947688626685159,-7.0
462,-4,-10,-2,-2,-1,-7,-32,0,False,0,-32,-7.25,10.539043057670302,12.237238250520416,-58.0
463,2,0,-1,0,1,6,17,0,False,17,-1,3.125,6.010407640085654,6.4323401651343035,25.0
464,-15,-24,-5,-1,-1,0,0,-5,False,0,-24,-6.375,8.683934263092638,10.32593821403169,-51.0
465,-5,-3,-1,0,-1,1,1,-1,False,1,-5,-1.125,2.03100960115899,2.2079402165819615,-9.0
466,6,8,-1,-1,0,-1,-1,-4,False,8,-4,0.75,4.06201920231798,3.872983346207417,6.0
467,1,5,-3,0,-1,0,5,-3,False,5,-3,0.5,3.116774889895918,2.958039891549808,4.0
468,2,2,-2,-1,-1,1,8,1,False,8,-2,1.25,3.1052950170405937,3.1622776601683795,10.0
469,5,0,-1,0,-1,1,-1,0,False,5,-1,0.375,1.9955307206712847,1.9039432764659772,3.0
470,-5,-10,-2,-2,0,3,1,-3,False,3,-10,-2.25,3.9910614413425693,4.358898943540674,-18.0
471,-26,-3,1,-2,0,-2,-2,-5,False,1,-26,-4.875,8.724964183307574,9.506576670915772,-39.0
472,1,4,0,-3,-3,-11,-14,-2,False,4,-14,-3.5,6.07100838882165,6.670832032063167,-28.0
473,10,10,1,0,-2,-1,-3,3,False,10,-3,2.25,5.1199888392735495,5.291502622129181,18.0
474,2,10,-1,2,0,4,8,0,False,10,-1,3.125,3.9798600118956085,4.860555523805895,25.0
475,6,0,-2,-1,-2,-10,-32,-3,False,6,-32,-5.5,11.563489339913177,12.134661099511597,-44.0
476,-1,-19,-1,0,0,5,11,8,False,11,-19,0.375,9.038607667745545,8.463155439905378,3.0
477,-1,-6,-2,2,-1,7,19,0,False,19,-6,2.25,7.704358692139331,7.54983443527075,18.0
478,-2,-3,-3,-3,-1,-2,-6,-3,False,-1,-6,-2.875,1.4577379737113252,3.181980515339464,-23.0
479,-7,8,-1,0,-1,-2,-13,-5,False,8,-13,-2.625,6.06953752062591,6.254998001598402,-21.0
480,-3,0,-1,-2,0,0,4,1,False,4,-3,-0.125,2.100170061141308,1.9685019685029528,-1.0
481,8,7,1,-2,-2,1,8,0,False,8,-2,2.625,4.34042460069124,4.834769901453429,21.0
482,-14,-28,-6,-5,-2,-7,-19,-7,False,-2,-28,-11.0,8.750510189207745,13.711309200802088,-88.0
483,6,1,-2,-1,-2,-7,-12,0,False,6,-12,-2.125,5.383506557731945,5.465802777268862,-17.0
484,0,1,1,-1,-1,4,14,1,False,14,-1,2.375,4.955156044825574,5.208166663999915,19.0
485,12,8,1,-1,-2,-2,-4,-2,False,12,-4,1.25,5.67576300723398,5.454356057317857,10.0
486,3,4,-3,-2,-1,-9,-15,-3,False,4,-15,-3.25,6.2048368229954285,6.652067347825035,-26.0
487,3,13,0,2,-1,-1,-4,-1,False,13,-4,1.375,5.1530157605591915,5.0124844139408555,11.0
488,-3,-1,0,-1,0,-1,0,0,False,0,-3,-0.75,1.0350983390135313,1.224744871391589,-6.0
489,2,0,0,-1,1,-3,-8,1,False,2,-8,-1.0,3.2071349029490923,3.1622776601683795,-8.0
490,6,1,1,-2,-1,-6,-20,1,False,6,-20,-2.5,7.837638128197258,7.745966692414834,-20.0
491,-13,-6,-3,-2,0,1,1,-7,False,1,-13,-3.625,4.838461975226661,5.798706752371601,-29.0
492,-2,13,0,0,0,3,9,-3,False,13,-3,2.5,5.631543812693435,5.830951894845301,20.0
493,0,2,-1,-1,0,-4,-5,-1,False,2,-5,-1.25,2.2519832529192065,2.449489742783178,-10.0
494,6,5,-2,0,-1,2,7,0,False,7,-2,2.125,3.440826312717007,3.856812155135378,17.0
495,-11,-5,0,-1,-2,-1,-4,-4,False,0,-11,-3.5,3.505098327538656,4.795831523312719,-28.0
496,3,-6,-1,2,1,3,11,0,False,11,-6,1.625,4.779046527738113,4.756574397610112,13.0
497,-7,-5,-3,-3,0,5,14,2,False,14,-7,0.375,6.7175144212722016,6.294839156007086,3.0
498,1,9,1,0,-1,-1,-3,2,False,9,-3,1.0,3.585685828003181,3.5,8.0
499,0,1,0,-2,0,1,7,-3,False,7,-3,0.5,2.9760952365713798,2.8284271247461903,4.0
500,6,-4,0,-4,1,3,7,2,False,7,-4,1.375,4.0686080455816125,4.046603514059662,11.0
501,-4,-4,-2,0,-1,1,5,-4,False,5,-4,-1.125,3.1367635732209265,3.142451272494134,-9.0
502,1,-2,1,0,0,12,42,4,False,42,-2,7.25,14.68478318337922,15.532224567009067,58.0
503,0,1,-1,-3,0,1,-1,2,False,2,-3,-0.125,1.5526475085202969,1.4577379737113252,-1.0
504,8,7,-1,-1,-1,0,-4,3,False,8,-4,1.375,4.240535680446853,4.198213905936666,11.0
505,1,0,-2,-1,-1,-3,-3,-1,False,1,-3,-1.25,1.3887301496588271,1.8027756377319946,-10.0
506,-7,-6,0,-2,-1,1,1,-5,False,1,-7,-2.375,3.2043497223082786,3.824264635194589,-19.0
507,2,-5,-2,-3,-3,-5,-9,-2,False,2,-9,-3.375,3.1594529363709243,4.4860896112315904,-27.0
508,-5,-5,-2,-1,-3,-5,-17,-2,False,-1,-17,-5.0,5.0990195135927845,6.910137480542627,-40.0
509,-4,7,-2,0,-1,-1,1,-3,False,7,-4,-0.375,3.37797487937881,3.181980515339464,-3.0
510,1,1,-2,-3,-1,1,3,0,False,3,-3,0.0,1.927248223318863,1.8027756377319946,0.0
511,3,2,1,-1,-1,1,12,4,False,12,-1,2.625,4.172614801981401,4.703721930556695,21.0
512,-11,-15,-1,1,-2,-5,-11,-3,False,1,-15,-5.875,5.743008171432708,7.960841664045329,-47.0
513,-2,-2,1,0,2,8,21,0,False,21,-2,3.5,7.745966692414834,8.04673846971554,28.0
514,1,1,-2,1,-2,-3,-2,-2,False,1,-3,-1.0,1.6903085094570331,1.8708286933869707,-8.0
515,-11,-7,-2,-1,-2,4,9,-1,False,9,-11,-1.375,6.1164298643664905,5.88430114796991,-11.0
516,-1,4,1,0,0,3,1,-7,False,4,-7,0.125,3.3139316313320126,3.1024184114977142,1.0
517,-2,0,0,-2,-3,2,7,0,False,7,-3,0.25,3.1509635714446826,2.958039891549808,2.0
518,1,-2,-1,0,0,-9,-29,-1,False,1,-29,-5.125,10.13392463813643,10.776131031126154,-41.0
519,-5,2,-3,-1,0,-1,-1,1,False,2,-5,-1.0,2.2038926600773587,2.29128784747792,-8.0
520,-9,-5,-1,-1,0,2,6,2,False,6,-9,-0.75,4.590362575159894,4.358898943540674,-6.0
521,2,-5,-1,1,2,0,1,-1,False,2,-5,-0.125,2.295181287579947,2.1505813167606567,-1.0
522,6,-3,-2,0,0,-3,-5,1,False,6,-5,-0.75,3.3700360320244136,3.24037034920393,-6.0
523,-9,-23,-3,-3,-2,-9,-25,-3,False,-2,-25,-9.625,9.303417190934276,12.97593927236098,-77.0
524,9,10,1,0,-2,-5,-11,3,False,10,-11,0.625,6.94750726108704,6.528782428600298,5.0
525,5,5,-1,-1,-3,-1,-1,0,False,5,-3,0.375,2.9730936268953445,2.806243040080456,3.0
526,-5,-15,-3,1,0,-2,-2,-1,False,1,-15,-3.375,5.040904113917888,5.798706752371601,-27.0
527,-1,-1,-2,1,-1,-3,-2,0,False,1,-3,-1.125,1.2464234547582247,1.620185174601965,-9.0
528,7,9,1,1,0,3,7,-3,False,9,-3,3.125,4.155461122770509,4.987484335815001,25.0
529,-9,-6,-4,0,-1,3,10,-4,False,10,-9,-1.375,5.902481318419036,5.689903338370521,-11.0
530,-9,-6,-2,-2,-3,-8,-28,-3,False,-2,-28,-7.625,8.667467911679857,11.129914644776033,-61.0
531,3,2,1,-1,0,1,0,-1,False,3,-1,0.625,1.4078859531733587,1.4577379737113252,5.0
532,5,4,0,-1,0,2,8,0,False,8,-1,2.25,3.1509635714446826,3.7080992435478315,18.0
533,3,0,1,-1,1,-1,0,0,False,3,-1,0.375,1.3024701806293193,1.2747548783981961,3.0
534,-9,-29,-2,-1,-2,-8,-28,0,False,0,-29,-9.875,11.945561040463046,14.912243292006739,-79.0
535,-3,3,-3,-2,0,-1,3,-4,False,3,-4,-0.875,2.6958963523950885,2.669269563007828,-7.0
536,-1,3,0,0,-1,3,12,-2,False,12,-2,1.75,4.527692569068709,4.58257569495584,14.0
537,-9,-7,-2,-1,-3,-10,-35,-3,False,-1,-35,-8.75,11.119480974526516,13.592277219068187,-70.0
538,-16,0,-3,-2,-1,1,1,-6,False,1,-16,-3.25,5.650537269018887,6.2048368229954285,-26.0
539,3,18,0,0,-3,-5,1,-1,False,18,-5,1.625,7.049569389078213,6.791538853603062,13.0
540,13,12,0,0,1,-1,1,2,False,13,-1,3.5,5.631543812693435,6.324555320336759,28.0
541,-6,-5,-3,-1,0,3,8,-3,False,8,-6,-0.875,4.580626906564522,4.373213921133975,-7.0
542,-4,-5,0,0,-1,-7,-13,0,False,0,-13,-3.75,4.590362575159894,5.70087712549569,-30.0
543,2,2,0,-2,-2,2,5,3,False,5,-2,1.25,2.434865792722759,2.598076211353316,10.0
544,11,15,1,1,0,7,23,7,False,23,0,8.125,7.989949043284676,11.039701082909808,65.0
545,2,0,0,0,0,-8,-6,2,False,2,-8,-1.25,3.693623849670827,3.6742346141747673,-10.0
546,5,3,0,-3,-1,-2,0,-3,False,5,-3,-0.125,2.850438562747845,2.669269563007828,-1.0
547,-6,-8,-1,0,-1,4,9,-4,False,9,-8,-0.875,5.462534733462636,5.18411033833193,-7.0
548,-6,-9,-6,-3,-2,0,0,-4,False,0,-9,-3.75,3.1509635714446826,4.769696007084728,-30.0
549,8,4,1,-1,0,0,-13,0,False,8,-13,-0.125,5.986592162013855,5.60133912560202,-1.0
550,5,2,0,0,-1,0,-2,4,False,5,-2,1.0,2.449489742783178,2.5,8.0
551,-4,-13,-2,-2,-1,2,6,0,False,6,-13,-1.75,5.4707011825333165,5.408326913195984,-14.0
552,-3,-1,0,0,-1,0,10,0,False,10,-3,0.625,3.9256482631170977,3.724916106437835,5.0
553,14,8,0,0,0,1,5,1,False,14,0,3.625,5.097268175909804,5.989574275355469,29.0
554,4,2,1,1,1,-6,-13,1,False,4,-13,-1.125,5.5917669070569405,5.350233639758174,-9.0
555,1,-1,1,0,1,0,-4,-1,False,1,-4,-0.375,1.6850180160122068,1.620185174601965,-3.0
556,-12,-8,-5,-2,0,0,11,-5,False,11,-12,-2.625,6.843923269169936,6.919176251549024,-21.0
557,-1,6,1,0,-1,0,3,3,False,6,-1,1.375,2.445841952609133,2.669269563007828,11.0
558,5,2,0,2,0,4,15,2,False,15,0,3.75,4.862392121462145,5.894913061275798,30.0
559,-4,6,-1,1,-1,3,20,5,False,20,-4,3.625,7.405355205139434,7.8182478855559445,29.0
560,-9,-8,-2,-1,0,3,2,-5,False,3,-9,-2.5,4.440077219405729,4.847679857416329,-20.0
561,2,-3,-1,1,0,0,0,3,False,3,-3,0.25,1.8322507626258084,1.7320508075688772,2.0
562,-1,3,0,0,0,-4,-11,0,False,3,-11,-1.625,4.240535680446853,4.286607049870562,-13.0
563,-9,-5,0,0,-2,-14,-48,-5,False,0,-48,-10.375,15.91887917806132,18.148691412881536,-83.0
564,-3,-7,-2,-1,-1,1,2,1,False,2,-7,-1.25,2.866057521105554,2.958039891549808,-10.0
565,-1,3,-2,-1,-1,4,10,-2,False,10,-2,1.25,4.200340122282616,4.123105625617661,10.0
566,3,1,0,-1,-2,-9,-36,-6,False,3,-36,-6.25,12.623673904895629,13.360389215887388,-50.0
567,-3,4,0,1,0,10,25,0,False,25,-3,4.625,9.101608962940878,9.68891118753805,37.0
568,-5,-7,-2,-1,-1,-4,7,-3,False,7,-7,-2.0,4.174754056057845,4.387482193696061,-16.0
569,2,3,1,-1,0,5,23,1,False,23,-1,4.25,7.796519369931321,8.440971508067067,34.0
570,2,4,-1,-2,2,-2,1,1,False,4,-2,0.625,2.1339098923270936,2.091650066335189,5.0
571,-5,-5,-1,-1,1,2,6,0,False,6,-5,-0.375,3.6228441865473595,3.409545424246464,-3.0
572,-4,-5,-3,-2,0,5,12,5,False,12,-5,1.0,5.855400437691199,5.5677643628300215,8.0
573,1,3,0,-2,0,0,1,-1,False,3,-2,0.25,1.4880476182856899,1.4142135623730951,2.0
574,-6,-1,1,0,-3,-12,-34,-6,False,1,-34,-7.625,11.450982490598786,13.148193792304706,-61.0
575,0,-2,-1,0,-1,-1,-2,0,False,0,-2,-0.875,0.8345229603962802,1.1726039399558574,-7.0
576,-6,-24,-4,-1,1,7,15,-2,False,15,-24,-1.75,11.234513149855925,10.653637876331258,-14.0
577,4,2,0,-1,-2,-3,-7,-2,False,4,-7,-1.125,3.3139316313320126,3.29772648956823,-9.0
578,5,3,0,0,-2,-5,-11,1,False,5,-11,-1.125,4.9982139667227985,4.808846015417836,-9.0
579,4,9,-1,0,-1,1,3,2,False,9,-1,2.125,3.3139316313320126,3.758324094593227,17.0
580,-2,2,0,-2,0,1,10,2,False,10,-2,1.375,3.814914340921881,3.824264635194589,11.0
581,9,16,2,0,-1,1,8,0,False,16,-1,4.375,6.022280061808579,7.132671308843553,35.0
582,-7,-8,0,1,-1,3,4,-2,False,4,-8,-1.25,4.334248987508019,4.242640687119285,-10.0
583,1,-1,-1,-1,-2,0,-2,0,False,1,-2,-0.75,1.0350983390135313,1.224744871391589,-6.0
584,2,1,0,1,2,3,6,0,False,6,0,1.875,1.9594095320493146,2.622022120425379,15.0
585,3,-1,-2,-2,-2,-6,-25,0,False,3,-25,-4.375,8.700369450283624,9.239859306288164,-35.0
586,6,10,0,-1,-2,-2,5,2,False,10,-2,2.25,4.367084676466506,4.663689526544408,18.0
587,-8,2,1,0,0,-3,-17,-4,False,2,-17,-3.625,6.300510183423924,6.919176251549024,-29.0
588,4,9,-1,-1,0,-2,-3,1,False,9,-3,0.875,3.9074105418879577,3.758324094593227,7.0
589,2,-5,-1,-1,1,1,8,0,False,8,-5,0.625,3.662064211031025,3.48209706929603,5.0
590,6,-5,-1,-1,0,1,7,-1,False,7,-5,0.75,3.955105199973465,3.774917217635375,6.0
591,-5,-4,-1,-1,-1,-3,-6,-5,False,-1,-6,-3.25,2.052872551885702,3.774917217635375,-26.0
592,0,2,1,-1,-1,-2,4,0,False,4,-2,0.375,1.922609833384967,1.8371173070873836,3.0
593,5,6,0,0,1,9,30,3,False,30,0,6.75,9.910312089651148,11.467344941179714,54.0
594,3,9,0,-1,-1,3,0,-2,False,9,-2,1.375,3.583194903195431,3.6228441865473595,11.0
595,-4,-9,-3,-3,-3,0,4,-2,False,4,-9,-2.5,3.664501525251617,4.242640687119285,-20.0
596,-7,-5,-1,-2,0,-6,-6,0,False,0,-7,-3.375,2.9246489410818914,4.344536799245692,-27.0
597,-1,-1,-2,-3,-1,-1,1,-2,False,1,-3,-1.25,1.1649647450214349,1.6583123951777,-10.0
598,-5,-8,-3,-4,-3,-6,-11,-7,False,-3,-11,-5.875,2.748376143938713,6.41287766919033,-47.0
599,-3,-11,-4,-2,-1,-2,-9,-5,False,-1,-11,-4.625,3.583194903195431,5.7118298293979315,-37.0
600,3,2,1,-1,-1,-6,-16,-4,False,3,-16,-2.75,6.1353775061406886,6.363961030678928,-22.0
601,-11,-21,-3,0,-2,-6,-18,-4,False,0,-21,-8.125,7.772432970808708,10.902981243678262,-65.0
602,3,1,-1,-2,-2,2,7,-1,False,7,-2,0.875,3.090885217631258,3.020761493398643,7.0
603,-6,-4,-3,-2,-1,-8,-7,-5,False,-1,-8,-4.5,2.449489742783178,5.049752469181039,-36.0
604,10,2,-1,0,0,-1,-12,2,False,10,-12,0.0,6.023762469230862,5.634713834792322,0.0
605,11,8,1,1,1,7,11,0,False,11,0,5.0,4.7509397566616824,6.689544080129826,40.0
606,-1,9,-2,-2,-2,3,4,-5,False,9,-5,0.5,4.503966505838413,4.242640687119285,4.0
607,4,5,2,2,0,3,5,6,False,6,0,3.375,1.9955307206712847,3.856812155135378,27.0
608,-6,-1,-1,-2,0,2,4,-6,False,4,-6,-1.25,3.494894235064305,3.5,-10.0
609,-1,5,1,-2,0,-7,-13,-1,False,5,-13,-2.25,5.4707011825333165,5.5901699437494745,-18.0
610,-2,-5,-2,-2,0,4,14,-1,False,14,-5,0.75,5.922113522335465,5.5901699437494745,6.0
611,0,0,0,-1,-1,1,3,2,False,3,-1,0.5,1.4142135623730951,1.4142135623730951,4.0
612,6,3,0,-2,0,-7,-9,2,False,6,-9,-0.875,5.02671434864337,4.782781617427248,-7.0
613,-14,-8,-1,-1,1,9,12,-1,False,12,-14,-0.375,8.348438690643214,7.8182478855559445,-3.0
614,2,-3,-1,-2,0,6,12,1,False,12,-3,1.875,4.940720016932176,4.987484335815001,15.0
615,-4,-4,-3,-1,-1,1,7,-3,False,7,-4,-1.0,3.664501525251617,3.5707142142714248,-8.0
616,-4,-7,-1,-1,-1,-6,-4,3,False,3,-7,-2.625,3.2486260832190936,4.0155946010522525,-21.0
617,-4,4,-2,-1,-1,-6,-14,-1,False,4,-14,-3.125,5.249149590988185,5.820223363411408,-25.0
618,-6,2,1,1,0,-1,-1,2,False,2,-6,-0.25,2.6049403612586386,2.449489742783178,-2.0
619,2,7,1,0,-1,-1,-2,-3,False,7,-3,0.375,3.113908889391045,2.9368350311176825,3.0
620,-15,-24,-4,-2,-1,1,1,-2,False,1,-24,-5.75,8.972179222463181,10.173494974687902,-46.0
621,4,5,0,0,1,1,-4,0,False,5,-4,0.875,2.748376143938713,2.715695122800054,7.0
622,1,-2,1,0,0,0,1,2,False,2,-2,0.375,1.1877349391654206,1.1726039399558574,3.0
623,-12,-14,-3,-1,-1,-1,1,-4,False,1,-14,-4.375,5.5533130394644346,6.791538853603062,-35.0
624,0,-4,-1,-2,-2,-2,-5,1,False,1,-5,-1.875,1.9594095320493146,2.622022120425379,-15.0
625,3,10,2,2,1,8,21,2,False,21,1,6.125,6.8334785118143575,8.852965604812887,49.0
626,-2,-1,-1,-1,0,4,20,1,False,20,-2,2.5,7.309485031694875,7.280109889280518,20.0
627,1,6,-1,0,0,0,-5,-4,False,6,-5,-0.375,3.3354160160315836,3.142451272494134,-3.0
628,10,6,0,-1,0,-1,-6,-1,False,10,-6,0.875,4.911720676097125,4.677071733467427,7.0
629,-10,-10,-3,-3,-3,-3,-6,-5,False,-3,-10,-5.375,3.0676887530703443,6.093028803476971,-43.0
630,2,-5,-1,0,-2,0,3,2,False,3,-5,-0.125,2.5877458475338284,2.4238399287081647,-1.0
631,15,16,2,0,-1,-2,-11,8,False,16,-11,3.375,9.132946637625464,9.185586535436919,27.0
632,-2,0,1,0,0,-1,-1,-2,False,1,-2,-0.625,1.0606601717798212,1.1726039399558574,-5.0
633,6,6,-1,1,0,0,-4,-3,False,6,-4,0.625,3.7008686239082538,3.517811819867572,5.0
634,0,-3,0,-2,0,-5,-7,0,False,0,-7,-2.125,2.6958963523950885,3.29772648956823,-17.0
635,6,6,2,-1,0,-2,-4,3,False,6,-4,1.25,3.6547425158474374,3.640054944640259,10.0
636,1,-1,-1,-2,1,4,14,-2,False,14,-2,1.75,5.338539126015656,5.291502622129181,14.0
637,-7,-13,-1,1,-1,-9,-28,2,False,2,-28,-7.0,9.98570406702931,11.672617529928752,-56.0
638,-2,-1,0,-1,-1,2,13,-1,False,13,-2,1.125,4.940720016932176,4.756574397610112,9.0
639,-2,-7,-2,-1,0,-1,-4,-2,False,0,-7,-2.375,2.1998376563477846,3.142451272494134,-19.0
640,-16,-9,-3,-2,-3,-7,-4,-2,False,-2,-16,-5.75,4.832922806867792,7.314369419163897,-46.0
641,-2,3,-3,-1,0,3,14,2,False,14,-3,2.0,5.3452248382484875,5.385164807134504,16.0
642,6,2,-1,0,0,0,-8,-4,False,6,-8,-0.625,4.103569874424672,3.8890872965260113,-5.0
643,4,4,-1,-1,-4,-9,-24,-2,False,4,-24,-4.125,9.06228448019593,9.427353817482402,-33.0
644,-3,10,1,0,-1,-1,-8,0,False,10,-8,-0.25,5.007137762377681,4.69041575982343,-2.0
645,1,4,0,-1,2,4,19,-1,False,19,-1,3.5,6.56832224718437,7.0710678118654755,28.0
646,1,4,2,0,1,-2,-2,-2,False,4,-2,0.25,2.187627547301936,2.0615528128088303,2.0
647,-3,-1,2,0,0,2,2,0,False,2,-3,0.25,1.752549163769328,1.6583123951777,2.0
648,4,-7,-1,-1,-1,1,6,1,False,6,-7,0.25,3.882193783343198,3.640054944640259,2.0
649,-6,1,-1,0,0,-2,-2,-4,False,1,-6,-1.75,2.3145502494313788,2.7838821814150108,-14.0
650,-13,-32,-5,-2,-3,-12,-28,-2,False,-2,-32,-12.125,11.873590141871281,16.44308365240535,-97.0
651,3,5,-1,-1,-1,3,11,-3,False,11,-3,2.0,4.535573676110727,4.69041575982343,16.0
652,-3,-5,-1,-1,1,2,-1,3,False,3,-5,-0.625,2.615202805574687,2.5248762345905194,-5.0
653,0,-5,-1,0,0,0,2,5,False,5,-5,0.125,2.7998724460742337,2.622022120425379,1.0
654,6,2,0,-1,-1,3,4,3,False,6,-1,2.0,2.5071326821120348,3.082207001484488,16.0
655,-2,-32,-5,-3,-1,-2,-3,-5,False,-1,-32,-6.625,10.350120772242226,11.731368206650068,-53.0
656,-1,6,0,0,0,-2,-4,1,False,6,-4,0.0,2.8784916685156974,2.692582403567252,0.0
657,1,4,-1,0,1,-4,-8,-3,False,4,-8,-1.25,3.693623849670827,3.6742346141747673,-10.0
658,-5,0,-2,-1,-1,1,6,-7,False,6,-7,-1.125,3.9074105418879577,3.824264635194589,-9.0
659,3,6,1,1,0,3,10,3,False,10,0,3.375,3.2486260832190936,4.541475531146237,27.0
660,1,11,1,-1,-1,-6,-23,-3,False,11,-23,-2.625,9.590732133530935,9.347459547919959,-21.0
661,-2,5,-1,-2,-3,-10,-22,-2,False,5,-22,-4.625,8.105333341166702,8.881159834165805,-37.0
662,2,4,-1,0,0,2,8,0,False,8,-1,1.875,2.948970764763288,3.3354160160315836,15.0
663,-3,-1,-1,0,0,2,1,-6,False,2,-6,-1.0,2.5071326821120348,2.5495097567963922,-8.0
664,6,3,-3,-1,-1,-8,-16,2,False,6,-16,-2.25,6.96419413859206,6.892024376045111,-18.0
665,3,-4,0,0,2,3,4,0,False,4,-4,1.0,2.5634797778466227,2.598076211353316,8.0
666,3,-3,2,1,0,2,8,1,False,8,-3,1.75,3.1052950170405937,3.391164991562634,14.0
667,-3,8,-1,-1,-1,-2,-5,-3,False,8,-5,-1.0,3.8913824205360674,3.774917217635375,-8.0
668,0,-8,0,-1,-2,2,8,-1,False,8,-8,-0.25,4.432026302139591,4.153311931459037,-2.0
669,3,8,1,0,-1,1,4,5,False,8,-1,2.625,2.9730936268953445,3.824264635194589,21.0
670,3,0,-1,0,-3,-19,-55,-2,False,3,-55,-9.625,19.52242300535464,20.642795353343015,-77.0
671,-2,0,1,-1,-1,3,14,-1,False,14,-2,1.625,5.2355242608275905,5.1599418601375735,13.0
672,-8,-7,-4,-1,1,6,21,-3,False,21,-8,0.625,9.364637129725239,8.782084035125148,5.0
673,6,8,0,0,-2,-2,-1,0,False,8,-2,1.125,3.758324094593227,3.69120576505835,9.0
674,-4,-1,-3,-1,-3,1,6,-5,False,6,-5,-1.25,3.494894235064305,3.5,-10.0
675,-10,-4,-2,-3,-1,1,-3,1,False,1,-10,-2.625,3.50255009141299,4.198213905936666,-21.0
676,-5,-11,-3,-2,-1,1,4,0,False,4,-11,-2.125,4.4860896112315904,4.703721930556695,-17.0
677,-2,-3,0,0,0,3,8,-4,False,8,-4,0.25,3.8078865529319543,3.5707142142714248,2.0
678,-8,-4,-1,0,1,2,9,2,False,9,-8,0.125,4.940720016932176,4.623310502226732,1.0
679,-1,0,-1,0,0,-1,1,-1,False,1,-1,-0.375,0.7440238091428449,0.7905694150420949,-3.0
680,1,-1,0,0,-1,3,12,-2,False,12,-2,1.5,4.503966505838413,4.47213595499958,12.0
681,-7,-9,-2,-2,-5,-20,-56,-4,False,-2,-56,-13.125,18.27126940620946,21.54936193950995,-105.0
682,1,5,0,1,-1,1,5,2,False,5,-1,1.75,2.187627547301936,2.692582403567252,14.0
683,7,7,3,1,1,7,27,6,False,27,1,7.375,8.348438690643214,10.741275529470418,59.0
684,7,-2,0,-2,-2,-5,-20,3,False,7,-20,-2.625,7.927123419897391,7.866066361276137,-21.0
685,0,7,2,1,1,5,7,0,False,7,0,2.875,2.9970223317724636,4.0155946010522525,23.0
686,8,7,0,1,0,0,6,0,False,8,0,2.75,3.575711717366808,4.330127018922194,22.0
687,6,6,0,-1,0,2,7,-1,False,7,-1,2.375,3.420004177106889,3.984344362627307,19.0
688,-3,-8,-5,-2,-2,1,4,-6,False,4,-8,-2.625,3.8521793460696654,4.458138625031752,-21.0
689,2,0,0,1,0,-1,-4,-1,False,2,-4,-0.375,1.7677669529663689,1.695582495781317,-3.0
690,-9,0,-3,-2,-2,0,2,-4,False,2,-9,-2.25,3.3273756282434617,3.840572873934304,-18.0
691,2,1,0,-1,-1,-3,-6,0,False,2,-6,-1.0,2.5071326821120348,2.5495097567963922,-8.0
692,0,6,-2,-2,1,4,10,-1,False,10,-2,2.0,4.309458036856673,4.5,16.0
693,0,-4,1,0,-1,-1,-2,-1,False,1,-4,-1.0,1.5118578920369088,1.7320508075688772,-8.0
694,-10,-1,-1,-1,0,1,7,0,False,7,-10,-0.625,4.627171304989074,4.373213921133975,-5.0
695,1,-4,-2,-1,0,-2,-6,0,False,1,-6,-1.75,2.3145502494313788,2.7838821814150108,-14.0
696,6,3,3,0,0,1,4,4,False,6,0,2.625,2.1339098923270936,3.29772648956823,21.0
697,-6,6,0,-2,-1,1,1,-6,False,6,-6,-0.875,3.9438016467073274,3.7914377220257753,-7.0
698,1,1,-2,0,-1,0,2,-2,False,2,-2,-0.125,1.4577379737113252,1.3693063937629153,-1.0
699,-5,2,-1,-2,-1,0,1,1,False,2,-5,-0.625,2.1998376563477846,2.1505813167606567,-5.0
700,-1,-5,-2,-1,-1,-3,0,0,False,0,-5,-1.625,1.6850180160122068,2.2638462845343543,-13.0
701,-4,-4,-2,-2,-3,-12,-24,3,False,3,-24,-6.0,8.366600265340756,9.86154146165801,-48.0
702,4,4,-1,-1,0,0,1,-1,False,4,-1,0.75,2.1213203435596424,2.1213203435596424,6.0
703,-7,3,-4,-2,0,1,2,-4,False,3,-7,-1.375,3.461523198989551,3.517811819867572,-11.0
704,-2,-2,1,-2,0,-1,-1,0,False,1,-2,-0.875,1.1259916264596033,1.3693063937629153,-7.0
705,14,-3,1,2,-1,3,4,3,False,14,-3,2.875,5.055054048036621,5.533985905294664,23.0
706,-4,-12,0,-1,-3,0,-2,-2,False,0,-12,-3.0,3.8913824205360674,4.716990566028302,-24.0
707,5,5,-1,-2,0,2,2,-2,False,5,-2,1.125,2.850438562747845,2.8939592256975564,9.0
708,5,5,0,2,0,2,4,-2,False,5,-2,2.0,2.5634797778466227,3.122498999199199,16.0
709,-11,-10,-3,-1,-3,-12,-32,-5,False,-1,-32,-9.625,9.94179489399604,13.383758814324173,-77.0
710,3,1,-2,-1,-2,-1,4,-3,False,4,-3,-0.125,2.5319388392523003,2.3717082451262845,-1.0
711,0,2,-2,-2,-1,4,12,-7,False,12,-7,0.75,5.574175147179049,5.267826876426369,6.0
712,-9,-5,-3,-2,0,-1,0,1,False,1,-9,-2.375,3.2923070504261465,3.8890872965260113,-19.0
713,11,1,0,0,-1,1,7,5,False,11,-1,3.0,4.242640687119285,4.9749371855331,24.0
714,3,2,1,1,-2,0,2,0,False,3,-2,0.875,1.5526475085202969,1.695582495781317,7.0
715,-3,-6,0,2,-2,0,0,0,False,2,-6,-1.125,2.4748737341529163,2.57390753524675,-9.0
716,-6,-20,-3,-2,1,-2,-2,0,False,1,-20,-4.25,6.692212958783834,7.566372975210778,-34.0
717,-1,-1,2,-1,0,2,7,1,False,7,-1,1.125,2.6958963523950885,2.7613402542968153,9.0
718,1,1,0,-2,-2,-3,-8,0,False,1,-8,-1.625,2.9730936268953445,3.2210246816812815,-13.0
719,1,-1,-1,0,0,0,2,-1,False,2,-1,0.0,1.0690449676496976,1.0,0.0
720,4,1,-1,1,-3,-3,-7,3,False,4,-7,-0.625,3.6228441865473595,3.4460121880225554,-5.0
721,-21,-27,-2,0,1,7,11,-3,False,11,-27,-4.25,13.144797993339962,13.009611831257688,-34.0
722,-1,4,-2,-1,1,0,-2,1,False,4,-2,0.0,2.0,1.8708286933869707,0.0
723,9,7,-2,-1,1,1,0,3,False,9,-2,2.25,3.882193783343198,4.272001872658765,18.0
724,-4,0,0,-1,0,1,1,-1,False,1,-4,-0.5,1.6035674514745462,1.5811388300841898,-4.0
725,-17,0,-1,-1,-2,-11,-36,-7,False,0,-36,-9.375,12.293290853144248,14.83661012495779,-75.0
726,3,5,1,0,0,-1,1,1,False,5,-1,1.25,1.9086270308410553,2.179449471770337,10.0
727,6,1,-2,-1,-2,-6,4,2,False,6,-6,0.25,3.8078865529319543,3.5707142142714248,2.0
728,5,9,0,-1,-2,-1,-3,-3,False,9,-3,0.5,4.27617987059879,4.031128874149275,4.0
729,3,8,2,0,0,5,20,3,False,20,0,5.125,6.556076788533128,7.99218368157289,41.0
730,1,-3,-3,-1,0,-2,1,-1,False,1,-3,-1.0,1.6035674514745462,1.8027756377319946,-8.0
731,0,2,-2,-2,-2,5,21,-1,False,21,-2,2.625,7.8182478855559445,7.770135133960027,21.0
732,2,11,1,1,0,3,6,0,False,11,0,3.0,3.779644730092272,4.636809247747852,24.0
733,-9,-19,-2,-1,0,-5,-11,-1,False,0,-19,-6.0,6.611677980232077,8.616843969807043,-48.0
734,0,0,-1,-2,-1,0,-2,-2,False,0,-2,-1.0,0.9258200997725514,1.3228756555322954,-8.0
735,-4,-4,-2,-2,-1,-3,-5,-4,False,-1,-5,-3.125,1.3562026818605375,3.3726843908080104,-25.0
736,5,0,-1,1,0,-1,-2,1,False,5,-2,0.375,2.1339098923270936,2.03100960115899,3.0
737,-6,1,-1,-1,-1,1,-4,-3,False,1,-6,-1.75,2.434865792722759,2.8722813232690143,-14.0
738,2,0,-1,-1,1,0,-4,1,False,2,-4,-0.25,1.8322507626258084,1.7320508075688772,-2.0
739,-7,-9,-1,-2,0,5,14,-3,False,14,-9,-0.375,7.20986427452992,6.754628043053148,-3.0
740,5,3,1,-1,0,-3,-11,1,False,5,-11,-0.625,4.838461975226661,4.568916720624267,-5.0
741,0,1,-2,0,0,-1,2,-3,False,2,-3,-0.375,1.5979898086569353,1.541103500742244,-3.0
742,5,7,1,0,1,3,6,0,False,7,0,2.875,2.7998724460742337,3.8890872965260113,23.0
743,4,-2,-1,1,-1,0,-2,1,False,4,-2,0.0,2.0,1.8708286933869707,0.0
744,-7,-4,-3,-2,0,-3,-3,-1,False,0,-7,-2.875,2.100170061141308,3.48209706929603,-23.0
745,1,-1,0,-2,-2,-10,-31,0,False,1,-31,-5.625,10.809222252978506,11.570436465406134,-45.0
746,-2,-4,-3,-2,0,-1,2,-1,False,2,-4,-1.375,1.8468119248354136,2.2079402165819615,-11.0
747,-12,-1,0,1,-1,1,6,3,False,6,-12,-0.375,5.2355242608275905,4.911720676097125,-3.0
748,8,6,-1,-1,-1,-4,-8,0,False,8,-8,-0.125,5.111262075065218,4.782781617427248,-1.0
749,2,2,1,-1,-1,-1,1,3,False,3,-1,0.75,1.5811388300841898,1.6583123951777,6.0
750,-8,-20,-3,-1,-2,-1,12,1,False,12,-20,-2.75,8.972179222463181,8.831760866327846,-22.0
751,2,-6,-1,-2,0,2,6,0,False,6,-6,0.125,3.48209706929603,3.2596012026013246,1.0
752,3,-2,-1,-1,0,3,6,-3,False,6,-3,0.625,3.0676887530703443,2.9368350311176825,5.0
753,-11,-27,-5,-3,-3,-9,-33,-6,False,-3,-33,-12.125,11.482128971331305,16.197993702925064,-97.0
754,2,-1,-3,-2,-1,-2,-14,-3,False,2,-14,-3.0,4.7207747548166585,5.338539126015656,-24.0
755,4,8,1,1,1,4,6,-3,False,8,-3,2.75,3.4537764010675946,4.242640687119285,22.0
756,1,1,0,0,-2,-4,-6,0,False,1,-6,-1.25,2.5495097567963922,2.692582403567252,-10.0
757,1,2,-2,-2,-2,4,11,-1,False,11,-2,1.375,4.470139019889969,4.401704215414752,11.0
758,5,4,4,2,1,0,0,1,False,5,0,2.125,1.9594095320493146,2.806243040080456,17.0
759,3,-1,-3,-1,0,-2,1,0,False,3,-3,-0.375,1.8468119248354136,1.7677669529663689,-3.0
760,-7,0,-3,-1,-3,7,29,-6,False,29,-7,2.0,11.722993279387795,11.146748404803978,16.0
761,3,-1,-1,-3,-2,-2,2,-3,False,3,-3,-0.875,2.2320714274285347,2.2638462845343543,-7.0
762,4,0,0,-1,1,4,13,4,False,13,-1,3.125,4.4860896112315904,5.232112384114087,25.0
763,-1,1,0,-1,-2,1,4,1,False,4,-2,0.375,1.8468119248354136,1.7677669529663689,3.0
764,-7,-23,0,1,0,-2,-9,3,False,3,-23,-4.625,8.467374361124502,9.17196816392207,-37.0
765,-2,2,0,0,1,3,10,2,False,10,-2,2.0,3.585685828003181,3.905124837953327,16.0
766,-9,-5,-2,-3,-2,-5,-8,-1,False,-1,-9,-4.375,2.9246489410818914,5.1599418601375735,-35.0
767,-12,-12,-2,-2,-1,1,9,-5,False,9,-12,-3.0,6.8868404532536855,7.106335201775948,-24.0
768,-14,-2,-4,-3,-2,-4,-6,-5,False,-2,-14,-5.0,3.8913824205360674,6.18465843842649,-40.0
769,-4,-2,1,-1,-1,-2,-4,-6,False,1,-6,-2.375,2.1998376563477846,3.142451272494134,-19.0
770,-9,1,-1,-1,-1,-3,-4,-4,False,1,-9,-2.75,3.0589447293376937,3.968626966596886,-22.0
771,7,10,2,1,0,-1,-6,0,False,10,-6,1.625,4.926241685388278,4.886205071423016,13.0
772,-6,-14,-2,1,-2,-1,-6,-3,False,1,-14,-4.125,4.642582409453969,5.989574275355469,-33.0
773,-3,-4,-1,-2,-1,-1,-1,-1,False,-1,-4,-1.75,1.1649647450214349,2.0615528128088303,-14.0
774,20,2,-2,-1,-2,-2,-6,-2,False,20,-6,0.875,8.025628591313847,7.558108228915487,7.0
775,18,11,2,0,-1,0,10,0,False,18,-1,5.0,7.0710678118654755,8.2915619758885,40.0
776,-6,-4,-1,0,0,1,2,-4,False,2,-6,-1.5,2.8284271247461903,3.0413812651491097,-12.0
777,-3,-23,-2,0,-1,-2,-7,-2,False,0,-23,-5.0,7.559289460184544,8.660254037844387,-40.0
778,-3,3,-1,0,-2,-2,2,2,False,3,-3,-0.125,2.2320714274285347,2.091650066335189,-1.0
779,-5,2,-2,-1,-1,-9,-29,-4,False,2,-29,-6.125,9.80433577556379,11.028372500056388,-49.0
780,2,5,1,1,0,0,-3,4,False,5,-3,1.25,2.4928469095164494,2.6457513110645907,10.0
781,8,9,-1,-2,-1,-1,-2,0,False,9,-2,1.25,4.527692569068709,4.415880433163923,10.0
782,-5,-9,-3,-3,-1,-3,-5,-5,False,-1,-9,-4.25,2.3754698783308412,4.795831523312719,-34.0
783,5,9,0,1,-1,1,5,1,False,9,-1,2.625,3.37797487937881,4.107919181288746,21.0
784,-1,4,2,0,-3,0,2,1,False,4,-3,0.625,2.1339098923270936,2.091650066335189,5.0
785,1,5,1,0,-1,-2,-3,-1,False,5,-3,0.0,2.449489742783178,2.29128784747792,0.0
786,5,4,1,0,-1,-2,-1,5,False,5,-2,1.375,2.8753881725529062,3.020761493398643,11.0
787,-1,5,0,-2,0,-1,-1,-2,False,5,-2,-0.25,2.2519832529192065,2.1213203435596424,-2.0
788,-3,-4,-4,-6,0,0,2,-1,False,2,-6,-2.0,2.6726124191242437,3.2015621187164243,-16.0
789,-4,-5,5,4,1,1,4,-1,False,5,-5,0.625,3.7392703642746743,3.553167600887974,5.0
790,5,21,0,-1,-1,-2,-2,0,False,21,-2,2.5,7.801098823700598,7.713624310270756,20.0
791,-3,1,-5,3,-3,-1,-3,1,False,3,-5,-1.25,2.712405363721075,2.8284271247461903,-10.0
792,1,4,2,3,0,-2,-1,2,False,4,-2,1.125,2.03100960115899,2.2079402165819615,9.0
793,-4,-5,-6,-4,-1,0,0,-2,False,0,-6,-2.75,2.3145502494313788,3.5,-22.0
794,2,-7,-2,-1,2,1,1,-1,False,2,-7,-0.625,2.9730936268953445,2.850438562747845,-5.0
795,-12,-28,4,3,0,-2,-3,-2,False,4,-28,-5.0,10.488088481701515,11.01135777277262,-40.0
796,-4,-1,-6,-8,-3,-1,-2,-2,False,-1,-8,-3.375,2.5035688811888406,4.107919181288746,-27.0
797,0,8,5,0,-2,0,1,2,False,8,-2,1.75,3.24037034920393,3.5,14.0
798,-4,-4,-3,-3,-1,-1,0,-4,False,0,-4,-2.5,1.6035674514745462,2.9154759474226504,-20.0
799,-1,5,8,7,9,1,-1,-1,False,9,-1,3.375,4.34042460069124,5.2796780204857185,27.0
800,-2,1,3,1,0,1,-2,0,False,3,-2,0.25,1.6690459207925603,1.5811388300841898,2.0
801,-7,-2,-10,-20,-6,0,-2,0,False,0,-20,-5.875,6.728139203587953,8.609587678861281,-47.0
802,-1,-1,-9,-7,-6,-2,-3,0,False,0,-9,-3.625,3.2923070504261465,4.756574397610112,-29.0
803,1,6,5,17,1,0,1,-1,False,17,-1,3.75,5.873670062235365,6.652067347825035,30.0
804,-3,-8,-11,0,0,-1,-1,-3,False,0,-11,-3.375,4.033343171967536,5.062114182829147,-27.0
805,9,8,-3,5,1,-1,-3,1,False,9,-3,2.125,4.703721930556695,4.886205071423016,17.0
806,2,-3,-1,-3,8,2,0,-4,False,8,-4,0.125,3.9074105418879577,3.6571847095819483,1.0
807,1,-2,2,-9,-2,-2,-1,-5,False,2,-9,-2.25,3.4537764010675946,3.9370039370059056,-18.0
808,2,1,-1,-11,-6,-2,0,1,False,2,-11,-2.0,4.4077853201547175,4.58257569495584,-16.0
809,-3,2,30,15,0,-1,-1,0,False,30,-3,5.25,11.461114381121186,11.937336386313321,42.0
810,-2,1,-13,-32,-3,0,-2,2,False,2,-32,-6.125,11.432253871018984,12.323757543866238,-49.0
811,-3,-2,-5,-30,10,3,0,2,False,10,-30,-3.125,11.789068786682979,11.46189338634765,-25.0
812,5,3,67,-88,-8,-5,1,2,False,67,-88,-2.875,41.90955397383411,39.30807805019218,-23.0
813,2,2,40,61,-21,-10,0,2,False,61,-21,9.5,27.129319932501073,27.097047809678457,76.0
814,2,-5,-16,-30,-8,1,1,2,False,2,-30,-6.625,11.363318177363512,12.52497504987535,-53.0
815,-1,-1,7,26,-5,-3,-1,2,False,26,-5,3.0,9.957050624700928,9.785192895390463,24.0
816,3,3,1,33,9,0,-1,-2,False,33,-2,5.75,11.523268385562938,12.216791722870616,46.0
817,-2,-7,-21,-34,4,9,0,-2,False,9,-34,-6.625,14.141504264297446,14.794424625513491,-53.0
818,0,-7,-35,-9,-31,-17,-1,-1,False,0,-35,-12.625,13.793761529867664,18.052008198535695,-101.0
819,-4,-5,13,80,21,17,-4,-5,False,80,-5,14.125,28.747360127248452,30.374742797264968,113.0
820,-2,9,32,-10,1,9,1,0,False,32,-10,5.0,12.489995996796797,12.708265027138834,40.0
821,-4,-5,-14,25,-9,-10,-1,-5,False,25,-14,-2.875,11.96945517318383,11.559628021696891,-23.0
822,-3,-9,-43,-46,2,1,0,2,False,2,-46,-12.0,20.396078054371138,22.538855339169288,-96.0
823,2,4,11,3,3,-3,0,1,False,11,-3,2.625,4.033343171967536,4.596194077712559,21.0
824,-3,-11,-15,-40,-3,-4,-4,-5,False,-3,-40,-10.625,12.637105229103245,15.894181325252333,-85.0
825,3,16,45,23,6,1,1,-2,False,45,-2,11.625,15.945778662168152,18.910975649077443,93.0
826,2,-5,-31,4,13,5,0,-2,False,13,-31,-1.75,12.98075498574717,12.267844146385297,-14.0
827,-2,-11,-30,-3,-19,-7,-4,-3,False,-2,-30,-9.875,9.920217451533725,13.550830232867652,-79.0
828,-3,6,3,17,7,2,0,1,False,17,-3,4.125,6.104740546727366,7.044501401802686,33.0
829,-1,-10,-19,-21,-7,-6,1,-1,False,1,-21,-8.0,8.263517065131182,11.124297730643494,-64.0
830,-3,12,49,23,1,4,0,0,False,49,-3,10.75,17.629115527607002,19.685019685029527,86.0
831,-2,-4,-11,-6,10,-2,-2,3,False,10,-11,-1.75,6.2048368229954285,6.06217782649107,-14.0
832,-2,-6,-6,-2,-2,-7,-2,-3,False,-2,-7,-3.75,2.187627547301936,4.272001872658765,-30.0
833,7,12,39,20,12,2,1,1,False,39,1,11.75,12.870231433150577,16.822603841260722,94.0
834,7,-1,-7,0,16,5,1,-2,False,16,-7,2.375,6.968039281503185,6.937218462755804,19.0
835,-33,-12,-25,-16,-9,-1,0,0,False,0,-33,-12.0,12.212405870378577,16.56804152578089,-96.0
836,-16,-3,-4,14,13,0,-1,-1,False,14,-16,0.25,9.617692030835672,9.0,2.0
837,-27,-5,-7,1,15,12,0,2,False,15,-27,-1.125,12.911097109518948,12.129509470708204,-9.0
838,-49,-22,-5,-13,-54,-5,6,-4,False,6,-54,-18.25,22.063220850222987,27.54995462791182,-146.0
839,24,12,14,10,-15,-6,3,7,False,24,-15,6.125,12.158917949977527,12.918010682763812,49.0
840,-23,-6,-15,-14,-3,-1,-2,-12,False,-1,-23,-9.5,7.764387566686396,11.958260743101398,-76.0
841,20,0,2,4,-11,-7,-3,0,False,20,-11,0.625,9.226321043622967,8.65303414993839,5.0
842,13,-5,-4,-2,6,-1,-2,2,False,13,-5,0.875,6.010407640085654,5.689903338370521,7.0
843,-9,8,-1,-1,0,-2,-2,-3,False,8,-9,-1.25,4.652188425123938,4.527692569068709,-10.0
844,5,17,-7,-2,6,-4,-4,2,False,17,-7,1.625,7.726346392146069,7.407766195014527,13.0
845,17,-13,-8,-4,-5,-2,0,-3,False,17,-13,-2.25,8.74642784226795,8.48528137423857,-18.0
846,30,0,-14,-8,7,3,-6,2,False,30,-14,1.75,13.274572901388794,12.539936203984453,14.0
847,3,-2,-6,2,-4,-11,-2,-6,False,3,-11,-3.25,4.5591352563522705,5.361902647381804,-26.0
848,-4,0,-5,-1,8,4,-2,0,False,8,-5,0.0,4.242640687119285,3.968626966596886,0.0
849,1,-2,18,7,-4,-7,-4,1,False,18,-7,1.25,7.995534467974697,7.582875444051551,10.0
850,6,7,7,8,1,1,1,1,False,8,1,4.0,3.251373336211726,5.024937810560445,32.0
851,-2,-3,-32,-19,-4,1,1,-1,False,1,-32,-7.375,11.843473187492643,13.308831654206164,-59.0
852,0,-2,9,18,-2,-2,-2,1,False,18,-2,2.5,7.28991475552747,7.262919523166975,20.0
853,-16,1,22,7,-13,0,0,-3,False,22,-16,-0.25,11.756457192295887,11.0,-2.0
854,10,-2,15,-16,-37,-8,-2,-1,False,15,-37,-5.125,16.092922135434037,15.902043893789251,-41.0
855,0,-4,-7,-7,11,11,1,0,False,11,-7,0.625,7.110103475236589,6.680194607943694,5.0
856,4,0,15,42,100,13,-2,-1,False,100,-2,21.375,34.89550728348033,39.017624222907266,171.0
857,9,10,2,6,41,6,0,2,False,41,0,9.5,13.201731488169052,15.580436450882882,76.0
858,14,12,-3,-13,-13,4,16,4,False,16,-13,2.625,11.463451237987375,11.039701082909808,21.0
859,8,13,-22,-13,7,-9,-7,0,False,13,-22,-2.875,11.945561040463046,11.537980759214326,-23.0
860,-13,2,7,1,-1,7,6,-2,False,7,-13,0.875,6.62112420320641,6.254998001598402,7.0
861,-23,-26,12,2,-56,-1,0,1,False,12,-56,-11.375,22.219280559267183,23.69335349839697,-91.0
862,0,-4,-36,-26,-27,-2,-1,1,False,1,-36,-11.875,15.094346150605057,18.44925472749509,-95.0
863,-4,-6,21,50,28,7,-2,-4,False,50,-6,11.25,20.119287121707725,21.9260119492807,90.0
864,9,0,-13,-11,-1,-1,-2,-2,False,9,-13,-2.625,6.823017765517793,6.90108687092113,-21.0
865,7,8,-1,-13,-14,-6,-1,-5,False,8,-14,-3.125,8.131727983645296,8.223442101699263,-25.0
866,-16,-1,-11,-7,-6,-4,-5,1,False,1,-16,-6.125,5.409977554746151,7.945124291035352,-49.0
867,-6,0,1,-8,2,-4,-5,-4,False,2,-8,-3.0,3.585685828003181,4.5,-24.0
868,11,-27,-19,-22,-18,-11,-3,0,False,11,-27,-11.125,12.866762274502914,16.389783403083765,-89.0
869,22,35,27,7,10,-6,1,-3,False,35,-6,11.625,14.889473750654473,18.141802556526734,93.0
870,11,21,18,5,-3,-4,-2,0,False,21,-4,5.75,9.82344135219425,10.8397416943394,46.0
871,-4,-11,-9,-8,2,8,5,6,False,8,-11,-1.375,7.520210863305059,7.167635593415725,-11.0
872,10,-17,1,6,-2,1,0,-13,False,10,-17,-1.75,9.067209367511357,8.660254037844387,-14.0
873,-11,25,7,-6,-10,-27,-6,-1,False,25,-27,-3.625,15.080143045930111,14.564511663629508,-29.0
874,-17,6,4,8,12,27,6,-2,False,27,-17,5.5,12.398156544998361,12.835497652993435,44.0
875,-13,-66,-61,-19,-16,-75,0,4,False,4,-75,-30.75,31.48582447478774,42.579337712087536,-246.0
876,15,-55,-6,-4,-24,-33,-15,0,False,15,-55,-15.25,21.81578720625436,25.475478405713993,-122.0
877,0,-41,-50,-6,23,127,24,11,False,127,-50,11.0,54.25337382530759,51.92783453986888,88.0
878,-8,96,1,9,7,89,16,-13,False,96,-13,24.625,42.93828627893093,47.11289632361823,197.0
879,-29,-71,12,-3,-13,-46,-17,-1,False,12,-71,-21.0,26.94438717061496,32.8062494046485,-168.0
880,-34,64,5,1,3,-24,17,20,False,64,-34,6.5,29.79453449400218,28.61817604250837,52.0
881,59,-25,52,-50,-106,-48,-72,2,False,59,-106,-23.5,58.08860227519435,59.200929046764124,-188.0
882,64,-13,-75,17,73,102,74,63,False,102,-75,38.125,58.22232635093075,66.48026022813087,305.0
883,-57,42,38,28,52,-128,-31,-63,False,52,-128,-14.875,64.90528814026965,62.5089993520933,-119.0
884,-62,79,-7,40,105,46,92,34,False,105,-62,40.875,54.94006474591848,65.66486884171779,327.0
885,115,43,52,14,54,127,73,55,False,127,14,66.625,37.534507932225324,75.31019187334473,533.0
886,-29,-10,12,19,39,45,-2,-46,False,45,-46,3.5,31.654383582688826,29.816103031751148,28.0
887,-102,-61,-28,0,10,27,-16,-17,False,27,-102,-23.375,41.25162334468097,45.11513049964502,-187.0
888,46,24,19,19,29,30,23,63,False,63,19,31.625,15.36171028424709,34.736508172238615,253.0
889,92,-49,-35,-37,-77,-122,-45,-7,False,92,-122,-35.0,61.58153712181691,67.40363491682032,-280.0
890,51,19,-15,-19,-76,-25,-1,-23,False,51,-76,-11.125,36.817843112118496,36.19219529125029,-89.0
891,-21,-27,-8,-26,-55,-37,-3,-7,False,-3,-55,-23.0,17.443787268988185,28.20017730440715,-184.0
892,-34,15,-4,-3,-26,12,-23,-10,False,15,-34,-9.125,17.683224495872594,18.89113548731256,-73.0
893,-26,-9,1,5,8,32,14,32,False,32,-26,7.125,19.58452377334132,19.656423886353284,57.0
894,-27,-72,-50,-20,-24,-57,-18,-16,False,-16,-72,-35.5,21.166010488516726,40.64787817340531,-284.0
895,21,-31,9,15,1,-56,-14,-28,False,21,-56,-10.375,26.62940104470996,26.98379143115363,-83.0
896,5,21,3,6,13,17,2,4,False,21,2,8.875,7.16015761997298,11.118677978968543,71.0
897,-6,-20,8,-8,-21,-29,-7,27,False,27,-29,-7.0,17.856571419428278,18.110770276274835,-56.0
898,16,6,1,10,20,45,13,21,False,45,1,16.5,13.363062095621219,20.700241544484452,132.0
899,1,5,-21,-1,20,-26,-1,39,False,39,-26,2.0,20.818947414040206,19.576771950451892,16.0
900,-26,29,13,-8,-23,-81,-15,-37,False,29,-81,-18.5,33.15763217463773,36.114401559488705,-148.0
901,-20,34,54,19,58,99,-1,-7,False,99,-20,29.5,39.79590790162081,47.49736834815167,236.0
902,1,5,1,4,17,55,0,-2,False,55,-2,10.125,19.052090249028918,20.496950992769634,81.0
903,4,-30,-28,-10,-25,-17,-2,-15,False,4,-30,-15.375,12.258379058540209,19.180067778816632,-123.0
904,8,10,12,5,-9,-28,-3,-19,False,12,-28,-3.0,14.61897006338975,14.0,-24.0
905,8,3,-15,2,2,21,-1,-3,False,21,-15,2.125,10.148011768673845,9.72753822917186,17.0
906,10,-2,-12,-12,-17,-40,-5,2,False,10,-40,-9.5,15.0617775463968,16.99264546796643,-76.0
907,-6,-8,-11,-4,4,30,1,-11,False,30,-11,-0.625,13.47948176197544,12.624381172952598,-5.0
908,8,-8,3,2,28,15,3,4,False,28,-8,6.875,10.669549461635468,12.119199643540822,55.0
909,4,53,8,5,-13,-19,3,-32,False,53,-32,1.125,25.261136158138257,23.656394484367222,9.0
910,9,11,16,6,8,26,5,7,False,26,5,11.0,6.969320524371696,12.786711852544421,88.0
911,-6,-20,-11,1,5,5,0,9,False,9,-20,-2.125,9.657528521462266,9.280355596635292,-17.0
912,-15,5,-4,-9,-10,8,1,-4,False,8,-15,-3.5,7.837638128197258,8.12403840463596,-28.0
913,1,-7,-2,8,53,-8,-1,6,False,53,-8,6.25,19.69590240198634,19.45507645834372,50.0
914,-1,-6,-4,2,20,-30,-2,2,False,20,-30,-2.375,13.731481035510024,13.062350477613132,-19.0
915,-4,-4,-9,-7,-27,7,-3,-1,False,7,-27,-6.0,9.72478424292429,10.897247358851684,-48.0
916,4,-2,-4,-1,-5,-4,-2,-1,False,4,-5,-1.875,2.7998724460742337,3.2210246816812815,-15.0
917,2,-7,-5,1,3,-2,-2,0,False,3,-7,-1.25,3.4537764010675946,3.4641016151377544,-10.0
918,14,-4,-6,0,-3,0,-3,-13,False,14,-13,-1.875,7.623975340988453,7.3739406018763125,-15.0
919,7,-13,-5,-7,-7,-3,-1,2,False,7,-13,-3.375,6.13974173491268,6.661456297237114,-27.0
920,-14,14,-3,0,-2,12,0,2,False,14,-14,1.125,8.806450557890587,8.314144574157945,9.0
921,-21,-15,-5,-11,-30,-7,0,7,False,7,-30,-10.25,11.76860229593982,15.041608956491324,-82.0
922,-4,-1,-4,-2,1,6,1,0,False,6,-4,-0.375,3.2486260832190936,3.0618621784789726,-3.0
923,-1,17,5,0,-16,-1,-2,-2,False,17,-16,0.0,9.102589898327995,8.514693182963201,0.0
924,-1,-4,2,0,-16,-1,-1,2,False,2,-16,-2.375,5.829420456369815,5.947688626685159,-19.0
925,8,-6,-7,-3,1,3,-1,2,False,8,-7,-0.375,4.955156044825574,4.650268809434569,-3.0
926,5,2,-1,-6,-31,-3,-5,-1,False,5,-31,-5.0,11.096975134821973,11.521718621802913,-40.0
927,2,-7,-2,-4,-16,1,0,3,False,3,-16,-2.875,6.243568119044018,6.509608283145768,-23.0
928,6,-4,-4,-4,-14,0,0,7,False,7,-14,-1.625,6.631903411324901,6.41287766919033,-13.0
929,6,-2,-2,-2,1,3,0,-3,False,6,-3,0.125,3.090885217631258,2.8939592256975564,1.0
930,-2,-2,1,2,14,0,-1,-3,False,14,-3,1.125,5.462534733462636,5.232112384114087,9.0
931,-2,0,0,1,-2,-5,-2,-4,False,1,-5,-1.75,2.052872551885702,2.598076211353316,-14.0
932,-4,-8,-2,3,13,2,-2,-3,False,13,-8,-0.125,6.311836952447814,5.905505905508858,-1.0
933,-3,-8,-6,-4,-12,-3,-1,0,False,0,-12,-4.625,3.9256482631170977,5.905505905508858,-37.0
934,-1,-1,-4,-2,7,1,1,2,False,7,-4,0.375,3.2923070504261465,3.1024184114977142,3.0
935,2,-7,0,0,2,-1,-2,-1,False,2,-7,-0.875,2.850438562747845,2.806243040080456,-7.0
936,2,1,1,2,5,0,-1,-1,False,5,-1,1.125,1.9594095320493146,2.1505813167606567,9.0
937,0,-2,-3,0,-4,1,-1,-2,False,1,-4,-1.375,1.6850180160122068,2.091650066335189,-11.0
938,3,1,0,-3,-9,-3,0,-4,False,3,-9,-1.875,3.720119045714225,3.952847075210474,-15.0
939,-2,1,1,2,-3,-1,-1,1,False,2,-3,-0.25,1.752549163769328,1.6583123951777,-2.0
940,1,-1,-2,-5,-8,0,-1,-3,False,1,-8,-2.375,2.9246489410818914,3.6228441865473595,-19.0
941,-1,2,0,-1,5,0,-2,-3,False,5,-3,0.0,2.5071326821120348,2.345207879911715,0.0
942,-4,1,0,-6,13,4,-1,0,False,13,-6,0.875,5.767829500154901,5.465802777268862,7.0
943,6,-1,-3,-6,4,7,6,-1,False,7,-6,1.5,4.869731585445518,4.795831523312719,12.0
944,0,-1,0,0,12,5,3,-9,False,12,-9,1.25,5.946187253790689,5.70087712549569,10.0
945,-4,0,-3,-2,1,0,2,1,False,2,-4,-0.625,2.1339098923270936,2.091650066335189,-5.0
946,1,3,0,1,-8,-5,-2,-2,False,3,-8,-1.5,3.585685828003181,3.6742346141747673,-12.0
947,5,-2,-1,1,-2,-4,-4,-13,False,5,-13,-2.5,5.154748157905347,5.431390245600108,-20.0
948,-4,-2,1,2,-3,-4,-3,3,False,3,-4,-1.25,2.8157719063467175,2.9154759474226504,-10.0
949,-5,2,-2,0,5,-1,-3,4,False,5,-5,0.0,3.4641016151377544,3.24037034920393,0.0
950,-1,-4,-2,2,2,2,1,-1,False,2,-4,-0.125,2.2320714274285347,2.091650066335189,-1.0
951,-3,2,-1,-2,-5,-5,-1,1,False,2,-5,-1.75,2.5495097567963922,2.958039891549808,-14.0
952,-1,1,3,4,3,1,-2,0,False,4,-2,1.125,2.100170061141308,2.2638462845343543,9.0
953,-2,-1,2,1,-6,-2,-4,-2,False,2,-6,-1.75,2.5495097567963922,2.958039891549808,-14.0
954,1,1,0,1,3,-1,0,-8,False,3,-8,-0.375,3.2923070504261465,3.1024184114977142,-3.0
955,0,0,1,0,0,-2,-2,0,False,1,-2,-0.375,1.0606601717798212,1.0606601717798212,-3.0
956,0,-2,-1,0,-3,-2,-1,5,False,5,-3,-0.5,2.449489742783178,2.345207879911715,-4.0
957,-1,-2,-1,1,-3,-2,0,-2,False,1,-3,-1.25,1.2817398889233114,1.7320508075688772,-10.0
958,-4,-1,-5,1,-5,-1,-1,3,False,3,-5,-1.625,2.8753881725529062,3.142451272494134,-13.0
959,1,3,3,3,4,2,-1,2,False,4,-1,2.125,1.5526475085202969,2.57390753524675,17.0
960,0,-1,-1,-1,1,7,6,2,False,7,-1,1.625,3.2043497223082786,3.409545424246464,13.0
961,-3,-1,-2,0,2,4,1,0,False,4,-3,0.125,2.2320714274285347,2.091650066335189,1.0
962,-4,-1,-3,-1,1,-1,0,0,False,1,-4,-1.125,1.6420805617960925,1.9039432764659772,-9.0
963,-2,-2,0,-1,-5,-3,-2,-1,False,0,-5,-2.0,1.5118578920369088,2.449489742783178,-16.0
964,-1,2,-2,-1,2,2,2,0,False,2,-2,0.5,1.6903085094570331,1.6583123951777,4.0
965,-3,0,-1,-1,0,1,9,0,False,9,-3,0.625,3.583194903195431,3.409545424246464,5.0
966,3,2,1,0,-3,-5,-3,0,False,3,-5,-0.625,2.774243783705493,2.669269563007828,-5.0
967,-1,-2,-2,-2,0,6,4,1,False,6,-2,0.5,3.0237157840738176,2.8722813232690143,4.0
968,-4,-3,-2,-1,2,-2,2,4,False,4,-4,-0.5,2.8284271247461903,2.692582403567252,-4.0
969,1,-1,0,0,0,1,0,0,False,1,-1,0.125,0.6408699444616557,0.6123724356957945,1.0
970,1,0,0,1,6,7,0,-4,False,7,-4,1.375,3.543101950067402,3.588175023601831,11.0
971,-2,0,0,5,10,-2,0,-1,False,10,-2,1.25,4.166190448976482,4.092676385936225,10.0
972,-2,-2,-1,-2,-7,5,6,3,False,6,-7,0.0,4.342481186734475,4.06201920231798,0.0
973,1,0,0,-2,-6,-7,2,-4,False,2,-7,-2.0,3.3380918415851206,3.7080992435478315,-16.0
974,0,-3,0,-1,0,-2,0,-2,False,0,-3,-1.0,1.1952286093343936,1.5,-8.0
975,4,-1,-2,-4,-3,-5,-7,0,False,4,-7,-2.25,3.3700360320244136,3.872983346207417,-18.0
976,-2,-3,-2,-4,-8,-1,5,1,False,5,-8,-1.75,3.770183777256185,3.9370039370059056,-14.0
977,0,-1,1,1,1,8,0,0,False,8,-1,1.25,2.8157719063467175,2.9154759474226504,10.0
978,-1,0,-1,1,1,-24,-22,-8,False,1,-24,-6.75,10.443726756834868,11.874342087037917,-54.0
979,-4,-4,-5,-5,-17,-10,-2,2,False,2,-17,-5.625,5.680480361981471,7.73789377027108,-45.0
980,4,2,0,0,1,1,6,5,False,6,0,2.375,2.326094212561969,3.2210246816812815,19.0
981,26,-8,-4,-4,0,-3,-9,14,False,26,-9,1.5,12.18898800440088,11.5,12.0
982,-6,-10,-9,-2,-3,-2,-5,3,False,3,-10,-4.25,4.200340122282616,5.787918451395113,-34.0
983,-21,9,1,-1,1,3,3,-4,False,9,-21,-1.125,8.854982455415385,8.359126748650244,-9.0
984,5,2,1,3,4,12,16,5,False,16,1,6.0,5.237229365663817,7.745966692414834,48.0
985,-2,-1,-1,1,-2,-19,-12,-11,False,1,-19,-5.875,7.180081575342402,8.923284148787374,-47.0
986,-8,-2,-5,-4,3,0,-10,7,False,7,-10,-2.375,5.629958132298016,5.777110004145672,-19.0
987,-10,-12,-6,-4,-6,-7,-9,-19,False,-4,-19,-9.125,4.733995594179856,10.142731387550397,-73.0
988,-3,-1,17,4,0,3,-1,8,False,17,-3,3.375,6.523309852258394,6.9731628404906765,27.0
989,-4,3,1,2,4,11,4,3,False,11,-4,3.0,4.140393356054125,4.898979485566356,24.0
990,2,3,-5,-3,2,-23,-2,-4,False,3,-23,-3.75,8.345229603962801,8.660254037844387,-30.0
991,15,7,7,1,4,4,2,13,False,15,1,6.625,5.040904113917888,8.131727983645296,53.0
992,25,-3,-4,-2,-6,2,27,6,False,27,-6,5.625,13.125085033738149,13.504628836069505,45.0
993,-9,0,-1,1,0,4,5,-9,False,5,-9,-1.125,5.276294695549682,5.062114182829147,-9.0
994,-5,0,-2,0,-1,10,5,1,False,10,-5,1.0,4.59813626840888,4.415880433163923,8.0
995,12,3,-2,-2,2,-4,9,23,False,23,-4,5.125,9.109453488390116,9.943590900675671,41.0
996,-16,-10,-11,-6,4,2,-33,-23,False,4,-33,-11.625,12.36281867998903,16.397408331806584,-93.0
997,-8,-3,-4,1,3,7,-1,0,False,7,-8,-0.625,4.565006649971686,4.315669125408017,-5.0
998,-14,-4,-1,1,0,-44,-27,-2,False,1,-44,-11.375,16.247527284394472,18.98354550656963,-91.0
999,-29,-8,-2,0,0,6,32,-4,False,32,-29,-0.625,16.82631867046384,15.751984002023365,-5.0
1000,-13,-12,3,2,-5,-9,-19,-13,False,3,-19,-8.25,7.722878811871719,10.965856099730654,-66.0
1001,-8,6,2,-2,-5,1,-3,-5,False,6,-8,-1.75,4.527692569068709,4.58257569495584,-14.0
1002,39,10,3,-12,-71,5,-13,6,False,39,-71,-4.125,31.416271943964688,29.67532645144784,-33.0
1003,-7,-8,-5,-8,-7,-16,-25,8,False,8,-25,-8.5,9.396047801374484,12.227019260637483,-68.0
1004,24,3,2,0,-3,6,-56,5,False,24,-56,-2.375,23.145116732724173,21.780151514624503,-19.0
1005,12,-7,-6,-10,-11,-22,15,8,False,15,-22,-2.625,12.916628264151822,12.364263018878239,-21.0
1006,14,-7,-9,-8,-22,-26,-36,8,False,14,-36,-10.75,16.841699948130447,19.072231122760652,-86.0
1007,-34,-2,-4,9,14,0,-14,-60,False,14,-60,-11.375,24.53532438866751,25.61493704852698,-91.0
1008,-11,-1,2,3,22,32,45,-20,False,45,-20,9.0,22.103651928390217,22.54994456755936,72.0
1009,-12,3,7,2,-5,-3,-17,21,False,21,-17,-0.5,11.759494644146672,11.01135777277262,-4.0
1010,13,7,5,9,24,34,19,-9,False,34,-9,12.75,13.079427685163772,17.67059704707229,102.0
1011,28,-9,-1,-1,-6,-5,9,15,False,28,-9,3.75,12.657578193093878,12.419742348374221,30.0
1012,-15,2,0,3,11,-3,18,4,False,18,-15,2.5,9.695359714832659,9.40744386111339,20.0
1013,21,6,4,6,42,53,19,-1,False,53,-1,18.75,19.462417996891194,26.13426869074396,150.0
1014,-20,2,-3,-5,3,-5,18,12,False,18,-20,0.25,11.585088938557428,10.8397416943394,2.0
1015,16,13,3,-6,-8,16,31,-12,False,31,-12,6.625,14.851046139197448,15.390743971621385,53.0
1016,-23,2,0,4,31,11,17,-1,False,31,-23,5.125,15.63364046809681,15.495967217311735,41.0
1017,-3,-2,-3,4,-2,-12,-23,-14,False,4,-23,-6.875,8.724964183307574,10.671222985206523,-55.0
1018,-6,-5,-4,-4,-7,-22,30,4,False,30,-22,-1.75,14.723644735109383,13.88344337691482,-14.0
1019,20,5,2,-2,-8,-12,2,10,False,20,-12,2.125,10.06319318819117,9.650129532809391,17.0
1020,-6,-1,1,3,7,33,-5,-7,False,33,-7,3.125,12.988318927845457,12.544919290294377,25.0
1021,-7,0,2,0,-7,-2,12,10,False,12,-7,1.0,6.98978847012861,6.614378277661476,8.0
1022,13,2,1,1,-25,-1,15,8,False,15,-25,1.75,12.337515378482237,11.672617529928752,14.0
1023,0,-20,-8,-3,2,-9,10,-12,False,10,-20,-5.0,9.273618495495704,10.012492197250394,-40.0
1024,24,2,0,-3,2,-7,-5,8,False,24,-7,2.625,9.82616768779016,9.55902714715258,21.0
1025,-14,2,0,-1,-11,4,-25,4,False,4,-25,-5.125,10.480423928176078,11.062323444918793,-41.0
1026,-7,1,0,1,5,-5,-11,-20,False,5,-20,-4.5,8.106434833777776,8.817596044274199,-36.0
1027,-6,-4,-1,-2,10,5,-15,-5,False,10,-15,-2.25,7.478540728549349,7.3484692283495345,-18.0
1028,-15,-9,-1,2,4,-4,-4,9,False,9,-15,-2.25,7.55456342692472,7.416198487095663,-18.0
1029,-62,-14,-11,-4,-5,-11,-7,-11,False,-4,-62,-15.625,19.048340760136714,23.698628652308134,-125.0
1030,-11,-4,-1,-3,-4,-2,-11,-4,False,-1,-11,-5.0,3.854496446637726,6.164414002968976,-40.0
1031,26,1,-5,-5,-8,-9,-10,6,False,26,-10,-0.5,11.988089327089854,11.224972160321824,-4.0
1032,9,-1,-6,-6,-3,-1,-7,1,False,9,-7,-1.75,5.203021100421232,5.1720402163943,-14.0
1033,8,14,8,2,2,-1,-7,-3,False,14,-7,2.875,6.812540956626557,6.991065727054782,23.0
1034,7,-2,3,2,3,-3,-2,3,False,7,-3,1.375,3.420004177106889,3.48209706929603,11.0
1035,-1,-6,-5,-2,-14,4,4,-8,False,4,-14,-3.5,6.09449400220044,6.689544080129826,-28.0
1036,-1,8,0,0,-2,0,24,5,False,24,-2,4.25,8.664376986917672,9.151502608861563,34.0
1037,-44,-1,11,4,-8,-4,-5,-21,False,11,-44,-8.5,17.079645362661537,18.096961070853858,-68.0
1038,9,4,-4,-2,-7,-2,1,8,False,9,-7,0.875,5.718079098038831,5.4198708471697,7.0
1039,35,2,2,-2,-4,-18,-3,7,False,35,-18,2.375,15.070666873101535,14.295978455495797,19.0
1040,-13,-2,-2,-1,-2,-9,-13,3,False,3,-13,-4.875,5.986592162013855,7.424621202458749,-39.0
1041,15,11,2,2,5,-4,-11,23,False,23,-11,5.375,10.78275739979608,11.42912945066246,43.0
1042,2,3,-1,-2,3,3,-3,1,False,3,-3,0.75,2.434865792722759,2.3979157616563596,6.0
1043,63,2,-10,-2,1,6,2,28,False,63,-10,11.25,23.572077913133946,24.753787588973125,90.0
1044,58,20,22,6,2,0,-2,14,False,58,-2,15.0,19.595917942265423,23.68543856465402,120.0
1045,17,-2,-4,-2,0,-2,-5,1,False,17,-5,0.375,6.988510979764267,6.547900426854397,3.0
1046,-18,5,-9,-3,-1,1,-4,-5,False,5,-18,-4.25,6.943650748294136,7.762087348130012,-34.0
1047,3,8,5,1,0,-1,-4,3,False,8,-4,1.875,3.720119045714225,3.952847075210474,15.0
1048,-25,-5,0,-1,3,-1,3,-15,False,3,-25,-5.125,9.891374308673477,10.57709790065309,-41.0
1049,-39,20,-3,0,4,2,-7,-42,False,20,-42,-8.125,21.49709282670566,21.688130394296323,-65.0
1050,4,-27,-6,-2,-1,0,-4,-8,False,4,-27,-5.5,9.441549509633317,10.404326023342406,-44.0
1051,-14,-2,17,-3,-2,-1,-5,-28,False,17,-28,-4.75,12.713884423843766,12.806248474865697,-38.0
1052,12,-32,-13,-8,-1,-17,-9,22,False,22,-32,-5.75,16.867127793433,16.792855623746664,-46.0
1053,-45,-12,-16,1,2,4,2,7,False,7,-45,-7.125,17.29110010546301,17.674133642133636,-57.0
1054,-95,-2,2,-1,-2,4,0,-35,False,4,-95,-16.125,34.2237908061462,35.845153089364814,-129.0
1055,-6,-8,-5,-2,0,-3,-2,0,False,0,-8,-3.25,2.866057521105554,4.2130748865881795,-26.0
1056,18,4,1,2,-1,1,-3,-10,False,18,-10,1.5,7.91021039994693,7.54983443527075,12.0
1057,-5,1,0,-1,-1,3,2,12,False,12,-5,1.375,4.926241685388278,4.808846015417836,11.0
1058,20,31,-4,-6,-4,-2,-3,-3,False,31,-6,3.625,13.86606855395058,13.46755360115563,29.0
1059,18,14,4,-1,-2,-2,0,-2,False,18,-2,3.625,7.963084470587655,8.284020762890446,29.0
1060,0,-3,1,1,1,2,-1,-9,False,2,-9,-1.0,3.585685828003181,3.5,-8.0
1061,7,-15,-6,2,3,2,3,12,False,12,-15,1.0,8.211490207542807,7.745966692414834,8.0
1062,-14,24,-8,-2,-1,2,0,9,False,24,-14,1.25,11.423659658795863,10.758717395675006,10.0
1063,-7,-5,35,17,4,1,-1,-16,False,35,-16,3.5,15.874507866387544,15.256146302392358,28.0
1064,-16,-19,-2,0,-1,-1,0,5,False,5,-19,-4.25,8.481071360893706,9.0,-34.0
1065,8,15,-1,-2,0,3,0,5,False,15,-2,3.5,5.732115042211108,6.4031242374328485,28.0
1066,2,-11,-1,3,3,1,-2,-2,False,3,-11,-0.875,4.580626906564522,4.373213921133975,-7.0
1067,-4,-16,-11,-6,-3,-2,-1,4,False,4,-16,-4.875,6.197637798848388,7.574628703771558,-39.0
1068,1,-18,-13,-3,-2,-2,-3,6,False,6,-18,-4.25,7.667184247539268,8.336666000266533,-34.0
1069,19,6,-7,-3,0,1,2,6,False,19,-7,3.0,7.782764841072135,7.874007874011811,24.0
1070,2,-9,-4,-6,-18,-8,-5,-9,False,2,-18,-7.125,5.667892024377317,8.881159834165805,-57.0
1071,-4,25,2,-6,-4,6,4,-2,False,25,-6,2.625,9.98480989160177,9.701803955966128,21.0
1072,3,-8,1,0,0,0,1,-1,False,3,-8,-0.5,3.251373336211726,3.082207001484488,-4.0
1073,-11,-3,-6,0,0,3,3,3,False,3,-11,-1.375,5.040904113917888,4.911720676097125,-11.0
1074,5,17,7,0,2,-4,-3,-7,False,17,-7,2.125,7.605214376615935,7.424621202458749,17.0
1075,2,-28,-13,-4,6,-2,1,0,False,6,-28,-4.75,10.91198554670178,11.258330249197702,-38.0
1076,-2,-4,-2,2,0,1,-5,-1,False,2,-5,-1.375,2.38671920665766,2.622022120425379,-11.0
1077,2,-7,9,3,-2,-4,-1,-7,False,9,-7,-0.875,5.436319658424385,5.1599418601375735,-7.0
1078,5,6,5,-4,-1,3,5,-7,False,6,-7,1.5,4.898979485566356,4.8218253804964775,12.0
1079,9,9,2,8,11,-1,-5,-1,False,11,-5,4.0,5.976143046671968,6.87386354243376,32.0
1080,-5,0,-1,3,6,4,2,4,False,6,-5,1.625,3.50255009141299,3.6571847095819483,13.0
1081,28,4,0,-6,3,-1,-3,4,False,28,-6,3.625,10.459957661755341,10.434318377354604,29.0
1082,3,2,5,4,-7,10,9,0,False,10,-7,3.25,5.338539126015656,5.958187643906492,26.0
1083,0,-20,-7,-2,-12,-6,-1,5,False,5,-20,-5.375,7.8182478855559445,9.076067430335673,-43.0
1084,2,1,-2,-3,-3,-1,0,6,False,6,-3,0.0,3.0237157840738176,2.8284271247461903,0.0
1085,-12,5,-3,9,18,0,-1,7,False,18,-12,2.875,8.999007881824687,8.895223437328598,23.0
1086,20,10,-1,-1,-6,-1,-4,-4,False,20,-6,1.625,8.863045268335902,8.448372624357901,13.0
1087,-4,5,-5,-8,-10,3,1,-3,False,5,-10,-2.625,5.262739645035518,5.578978401105349,-21.0
1088,8,20,10,4,1,-3,0,-1,False,20,-3,4.875,7.567552916422662,8.595056718835542,39.0
1089,-19,-14,-3,-1,-6,2,-2,-17,False,2,-19,-7.5,8.017837257372731,10.606601717798213,-60.0
1171,3,13,4,1,4,2,-12,6,False,13,-12,2.625,6.968039281503185,7.026734661277598,21.0
1172,5,6,2,-4,-9,-3,-4,-29,False,6,-29,-4.5,11.122692377040988,11.335784048754634,-36.0
1173,-17,10,1,-2,-1,1,9,8,False,10,-17,1.125,8.708575412447532,8.223442101699263,9.0
1174,19,6,3,2,-4,0,2,13,False,19,-4,5.125,7.453426824526516,8.65303414993839,41.0
1175,11,11,-2,-2,-3,-3,0,-17,False,11,-17,-0.625,8.895223437328598,8.344159634139318,-5.0
1176,-25,-3,-2,2,13,6,1,-3,False,13,-25,-1.375,10.966670285134734,10.350120772242226,-11.0
1177,4,-1,-4,-1,-5,-24,-7,9,False,9,-24,-3.625,9.709163565563058,9.778803607803972,-29.0
1178,17,-6,-4,-5,-18,-10,-7,-9,False,17,-18,-5.25,9.996427933445597,10.723805294763608,-42.0
1179,25,8,4,-4,-8,1,-1,0,False,25,-8,3.125,10.06319318819117,9.918417212438687,25.0
1180,-10,5,10,-1,-8,0,0,-4,False,10,-10,-1.0,6.524678426668135,6.18465843842649,-8.0
1181,-13,6,3,0,-8,4,2,-2,False,6,-13,-1.0,6.48074069840786,6.144102863722254,-8.0
1182,5,7,-2,2,2,6,1,4,False,7,-2,3.125,2.948970764763288,4.168333000133266,25.0
1183,-1,4,9,4,5,4,3,7,False,9,-1,4.375,2.9246489410818914,5.1599418601375735,35.0
1184,-1,3,0,0,1,-3,-8,-17,False,3,-17,-3.125,6.490377492873585,6.8282501418738315,-25.0
1185,-59,-19,-10,-4,0,0,-4,-5,False,0,-59,-12.625,19.726251544578865,22.357884515311373,-101.0
1186,8,-1,-3,-5,-4,-2,4,7,False,8,-5,0.5,5.0990195135927845,4.795831523312719,4.0
1187,3,2,7,-2,1,1,-3,-3,False,7,-3,0.75,3.4121631178560534,3.278719262151,6.0
1188,15,12,2,-7,-4,-5,2,14,False,15,-7,3.625,8.927285621700953,9.103570728016562,29.0
1189,-30,-17,3,0,10,2,0,-2,False,10,-30,-4.25,12.881326462308586,12.776932339180638,-34.0
1190,6,4,0,0,-8,-3,-6,2,False,6,-8,-0.625,4.808846015417836,4.541475531146237,-5.0
1191,38,-10,-8,-2,-4,-7,-4,2,False,38,-10,0.625,15.555775225206323,14.564511663629508,5.0
1192,-16,-11,-4,2,-1,6,2,2,False,6,-16,-2.5,7.483314773547883,7.433034373659253,-20.0
1193,23,16,-1,0,-9,-3,-1,-1,False,23,-9,3.0,10.730463976122241,10.476163419878482,24.0
1194,-6,-11,-5,2,-6,-2,-1,-12,False,2,-12,-5.125,4.793969425970806,6.809919235938118,-41.0
1195,1,7,1,4,-1,2,2,18,False,18,-1,4.25,6.041522986797286,7.0710678118654755,34.0
1196,3,5,2,2,4,1,1,5,False,5,1,2.875,1.6420805617960925,3.2596012026013246,23.0
1197,15,-13,-12,-7,-3,-4,-2,-8,False,15,-13,-4.25,8.74642784226795,9.219544457292887,-34.0
1198,14,-1,-1,-1,2,4,5,20,False,20,-1,5.25,7.7781745930520225,8.972179222463181,42.0
1199,-52,-38,-11,-5,-10,-4,-7,-10,False,-4,-52,-17.125,17.779904386694547,23.87205479216232,-137.0
1200,21,29,14,12,8,-1,-7,-36,False,29,-36,5.0,20.11396103634062,19.467922333931785,40.0
1201,10,10,2,1,11,0,3,3,False,11,0,5.0,4.535573676110727,6.557438524302,40.0
1202,19,-7,-17,-17,-11,6,1,26,False,26,-17,0.0,16.133372687870143,15.091388272786569,0.0
1203,-6,8,3,7,-9,1,-2,-3,False,8,-9,-0.125,6.010407640085654,5.623610939600996,-1.0
1204,-2,-6,-9,-6,0,-2,0,3,False,3,-9,-2.75,3.955105199973465,4.6097722286464435,-22.0
1205,-32,-22,-20,-7,2,1,1,8,False,8,-32,-8.625,14.302222604496526,15.917757379731606,-69.0
1206,25,4,20,17,-2,2,2,-10,False,25,-10,7.25,12.080089876676059,13.425721582097552,58.0
1207,-23,-18,-6,-4,3,-2,-1,-5,False,3,-23,-7.0,8.880154438811457,10.862780491200215,-56.0
1208,-13,-4,16,-6,4,-1,-3,-6,False,16,-13,-1.625,8.60128727907299,8.208227579691002,-13.0
1209,55,25,7,3,4,2,3,12,False,55,2,13.875,18.28690007315932,22.02555334151676,111.0
1210,-41,-10,-8,0,-2,-4,-5,-12,False,0,-41,-10.25,13.057564857200596,15.945218719101975,-82.0
1211,-7,7,8,-1,-3,0,1,-3,False,8,-7,0.25,5.092010548749033,4.769696007084728,2.0
1212,-50,-11,-11,-1,1,-1,2,-5,False,2,-50,-9.5,17.12141516180415,18.621224449536072,-76.0
1213,41,-2,10,3,3,2,-2,-9,False,41,-9,5.75,15.247950681976906,15.378556499229699,46.0
1214,6,-16,-11,-2,2,-2,-2,-8,False,6,-16,-4.125,7.140178069008003,7.850159234053791,-33.0
1215,-15,5,-6,-5,-2,-1,-1,-2,False,5,-15,-3.375,5.730557190560593,6.334429729659964,-27.0
1216,29,-17,-7,-5,-11,-2,2,8,False,29,-17,-0.375,14.121285858083684,13.21457528640251,-3.0
1217,-17,-5,-4,0,-1,-3,0,13,False,13,-17,-2.125,8.219097969276886,7.976528066771908,-17.0
1218,-28,-23,-10,-1,1,-2,-2,-7,False,1,-28,-9.0,10.8496214548843,13.564659966250536,-72.0
1219,15,21,10,3,2,2,5,9,False,21,2,8.375,6.843923269169936,10.541584321154007,67.0
1220,6,3,-6,-6,2,-4,-6,-8,False,6,-8,-2.375,5.2355242608275905,5.44288526426931,-19.0
1221,-26,-17,5,-2,0,-3,-5,-25,False,5,-26,-9.125,11.873590141871281,14.37445651146505,-73.0
1222,0,-8,-4,-4,-2,1,4,14,False,14,-8,0.125,6.685538764484772,6.254998001598402,1.0
1223,18,-19,-16,-4,-3,1,1,9,False,18,-19,-1.625,12.117726095034731,11.450982490598786,-13.0
1224,68,11,-5,-4,9,1,-1,5,False,68,-5,10.5,23.940402192587683,24.733580412063272,84.0
1225,-14,18,-3,-3,-2,1,1,15,False,18,-14,1.625,10.336309095334064,9.80433577556379,13.0
1226,-59,-13,-5,0,-7,-1,-2,-8,False,0,-59,-11.875,19.511443528643095,21.774411587916674,-95.0
1227,-6,41,4,5,1,2,0,-4,False,41,-6,5.375,14.870272357963051,14.912243292006739,43.0
1228,12,17,1,-1,-2,0,-4,6,False,17,-4,3.625,7.424621202458749,7.834219807996199,29.0
1229,35,-27,-22,-11,-3,-5,-1,13,False,35,-27,-2.625,19.668230365599385,18.5842675400458,-21.0
1230,-122,-24,15,5,2,2,-1,-7,False,15,-122,-16.25,44.16769989806708,44.395945760846224,-130.0
1231,25,-7,-9,-5,9,11,-1,-15,False,25,-15,1.0,13.093073414159543,12.288205727444508,8.0
1232,7,-6,0,2,-19,-7,-2,-9,False,7,-19,-4.25,7.923743703939085,8.54400374531753,-34.0
1233,-41,-9,0,-3,4,4,1,4,False,4,-41,-5.0,15.212776585113298,15.083103128998356,-40.0
1234,18,-2,-1,8,7,2,2,-16,False,18,-16,2.25,9.750457864707101,9.394147114027968,18.0
1235,1,-9,-3,6,0,-4,0,2,False,6,-9,-0.875,4.4860896112315904,4.286607049870562,-7.0
1236,-19,-8,-10,-2,-5,-5,-4,-4,False,-2,-19,-7.125,5.409977554746151,8.739279146474267,-57.0
1237,5,8,13,14,10,6,5,6,False,14,5,8.375,3.583194903195431,9.020809276334358,67.0
1238,-41,-26,-7,-3,-7,-6,-2,0,False,0,-41,-11.5,14.372592966177974,17.69180601295413,-92.0
1239,29,0,-1,-7,-4,-5,-5,-17,False,29,-17,-1.25,13.274572901388794,12.479983974348684,-10.0
1240,-7,-19,-10,-7,0,0,0,14,False,14,-19,-3.625,9.635314510397972,9.714679613862724,-29.0
1241,-31,5,-1,-5,-4,-2,-4,2,False,5,-31,-5.0,11.032419757890183,11.467344941179714,-40.0
1242,9,-1,-5,-5,-6,-5,0,-1,False,9,-6,-1.75,4.920801328471382,4.924428900898052,-14.0
1243,33,0,1,1,-5,-6,0,-14,False,33,-14,1.25,13.812520200373076,12.98075498574717,10.0
1244,-16,1,-5,-6,-8,-8,-2,-3,False,1,-16,-5.875,5.111262075065218,7.574628703771558,-47.0
1245,-5,11,9,-4,9,2,-3,1,False,11,-5,2.5,6.414269805898185,6.5,20.0
1246,6,0,-2,-1,0,0,-3,-27,False,6,-27,-3.375,9.913014533574392,9.867877177995275,-27.0
1247,67,24,-3,-6,-5,-3,-1,1,False,67,-6,9.25,25.2459331944205,25.362373705944798,74.0
1248,-11,-3,9,15,9,2,2,16,False,16,-11,4.875,9.18753036924038,9.880536422684752,39.0
1249,7,2,6,5,2,1,-4,-14,False,7,-14,0.625,6.843923269169936,6.4323401651343035,5.0
1250,-4,-29,-6,-1,0,-1,-1,-2,False,0,-29,-5.5,9.695359714832659,10.606601717798213,-44.0
1251,20,24,4,-4,-7,-3,-3,4,False,24,-7,4.375,11.57506556599758,11.677970714126662,35.0
1252,-18,1,1,3,21,0,-1,-1,False,21,-18,0.75,10.51189802081432,9.86154146165801,6.0
1253,15,1,-2,-2,7,2,-1,-6,False,15,-6,1.75,6.541078984824621,6.363961030678928,14.0
1254,-1,22,0,-5,-8,-2,1,6,False,22,-8,1.625,9.210824377561744,8.76783895837509,13.0
1255,-13,2,1,1,-1,1,2,-11,False,2,-13,-2.25,6.112048990080401,6.144102863722254,-18.0
1256,20,17,3,7,16,6,-3,-14,False,20,-14,6.5,11.376667852608312,12.469963913339926,52.0
1257,23,-16,17,2,-1,0,-3,8,False,23,-16,3.75,12.186057606953941,12.0,30.0
1258,7,3,-4,-3,10,-1,0,-2,False,10,-4,1.25,5.007137762377681,4.847679857416329,10.0
1259,-2,3,-2,-6,-12,-5,-2,5,False,5,-12,-2.625,5.289815011618351,5.60133912560202,-21.0
1260,-20,-17,-4,0,3,3,0,8,False,8,-20,-3.375,9.970492178709849,9.918417212438687,-27.0
1261,10,3,-4,-4,-6,-3,-2,10,False,10,-6,0.5,6.414269805898185,6.020797289396148,4.0
1262,-22,-9,-5,-1,0,1,-1,7,False,7,-22,-3.75,8.6972902183874,8.958236433584458,-30.0
1263,-35,-12,-1,-3,-10,0,3,4,False,4,-35,-6.75,12.758750498607387,13.711309200802088,-54.0
1264,20,13,-3,-1,7,1,1,2,False,20,-3,5.0,7.874007874011811,8.902246907382429,40.0
1265,-9,-1,2,-2,0,0,-3,3,False,3,-9,-1.25,3.693623849670827,3.6742346141747673,-10.0
1266,12,9,-3,0,0,-1,0,0,False,12,-3,2.125,5.330170192940773,5.4198708471697,17.0
1267,-7,-2,-3,-4,-7,-2,-1,-6,False,-1,-7,-4.0,2.390457218668787,4.58257569495584,-32.0
1268,1,-3,-3,-4,-4,0,-3,-6,False,1,-6,-2.75,2.2519832529192065,3.4641016151377544,-22.0
1269,1,5,-1,-2,9,-1,5,-2,False,9,-2,1.75,4.0970372570571385,4.2130748865881795,14.0
1270,-6,-1,-1,8,12,-21,-13,1,False,12,-21,-2.625,10.702970215251998,10.350120772242226,-21.0
1271,5,3,1,-1,-11,-6,-10,-2,False,5,-11,-2.625,5.8782285961479435,6.093028803476971,-21.0
1272,-4,2,-2,-5,-6,6,5,9,False,9,-6,0.625,5.655275665884277,5.326818938165629,5.0
1273,-2,-7,-4,-1,-2,0,0,-7,False,0,-7,-2.875,2.850438562747845,3.9210967853395307,-23.0
1274,2,-4,-4,-10,-8,-7,-4,-4,False,2,-10,-4.875,3.603074084326168,5.926634795564849,-39.0
1275,1,-1,0,0,-2,4,0,-1,False,4,-2,0.125,1.807721533549109,1.695582495781317,1.0
1276,6,6,1,0,-12,2,0,2,False,6,-12,0.625,5.629958132298016,5.303300858899107,5.0
1277,0,1,3,5,2,-4,-2,2,False,5,-4,0.875,2.850438562747845,2.806243040080456,7.0
1278,3,-8,-5,-7,-6,-1,-2,-5,False,3,-8,-3.875,3.6425069859723185,5.1599418601375735,-31.0
1279,-10,-14,1,2,6,0,-1,-3,False,6,-14,-2.375,6.566962768281849,6.585969936159746,-19.0
1280,-10,-1,-5,0,-3,-1,0,-4,False,0,-10,-3.0,3.3806170189140663,4.358898943540674,-24.0
1281,4,-4,-2,0,-2,-1,-3,1,False,4,-4,-0.875,2.5319388392523003,2.5248762345905194,-7.0
1282,1,-1,-3,-4,-5,2,2,-6,False,2,-6,-1.75,3.1959796173138706,3.4641016151377544,-14.0
1283,-3,-6,-6,-2,1,-2,-3,-3,False,1,-6,-3.0,2.2677868380553634,3.6742346141747673,-24.0
1284,-2,-15,-1,2,4,2,-1,6,False,6,-15,-0.625,6.41287766919033,6.031169040907409,-5.0
1285,3,4,3,3,-1,-2,-2,4,False,4,-2,1.5,2.6726124191242437,2.9154759474226504,12.0
1286,-7,7,-2,0,2,0,2,-3,False,7,-7,-0.125,4.120939559996343,3.856812155135378,-1.0
1287,7,1,-1,-1,2,4,5,1,False,7,-1,2.25,2.866057521105554,3.5,18.0
1288,6,0,4,3,1,0,2,-4,False,6,-4,1.5,3.0237157840738176,3.2015621187164243,12.0
1289,15,1,-1,-1,2,-3,0,-1,False,15,-3,1.5,5.656854249492381,5.5,12.0
1290,16,3,-5,-4,-6,-3,-4,-1,False,16,-6,-0.5,7.230886134196436,6.782329983125268,-4.0
1291,4,8,7,2,3,1,1,-17,False,8,-17,1.125,7.772432970808708,7.3569694847810805,9.0
1292,11,20,-4,-1,-3,-2,0,2,False,20,-4,2.875,8.356990230596521,8.329165624478842,23.0
1293,-7,-37,-3,-2,-3,0,0,0,False,0,-37,-6.5,12.547054292883706,13.416407864998739,-52.0
1294,3,-6,1,0,1,1,2,0,False,3,-6,0.25,2.712405363721075,2.5495097567963922,2.0
1295,-26,27,19,4,2,3,-2,-6,False,27,-26,2.625,15.945778662168152,15.14513123086096,21.0
1296,1,-3,-5,-5,-4,-3,0,4,False,4,-5,-1.875,3.2265638511757806,3.553167600887974,-15.0
1297,4,4,-6,-6,-9,-2,3,7,False,7,-9,-0.625,5.902481318419036,5.5565276927232174,-5.0
1298,-5,-2,-5,-4,4,4,-1,0,False,4,-5,-1.125,3.6425069859723185,3.588175023601831,-9.0
1299,3,0,-4,-3,-3,-3,-4,-1,False,3,-4,-1.875,2.416461403433896,2.9368350311176825,-15.0
1300,-6,-8,1,-1,-4,-5,-2,-4,False,1,-8,-3.625,2.8753881725529062,4.513867521316947,-29.0
1301,4,8,1,1,2,-1,-1,-3,False,8,-3,1.375,3.420004177106889,3.48209706929603,11.0
1302,1,-7,-8,-1,-12,-2,-2,2,False,2,-12,-3.625,4.8678977568791,5.820223363411408,-29.0
1303,11,9,-4,-2,-5,-6,-2,0,False,11,-6,0.125,6.401729676981281,5.989574275355469,1.0
1304,-2,12,10,3,-3,0,0,2,False,12,-3,2.75,5.4707011825333165,5.809475019311125,22.0
1305,14,-12,-9,-5,-13,2,1,-4,False,14,-13,-3.25,8.876131718587455,8.916277250063503,-26.0
1306,-7,-1,1,6,30,8,-3,1,False,30,-7,4.375,11.388433982397604,11.51629280628102,35.0
1307,-12,1,2,0,9,3,1,-1,False,9,-12,0.375,5.853875395228116,5.488624600025037,3.0
1308,49,17,-8,-5,-8,-7,-2,2,False,49,-8,4.75,19.710403344427025,19.03943276465977,38.0
1309,-5,-7,0,1,10,9,-1,-1,False,10,-7,0.75,6.017830648521585,5.678908345800274,6.0
1310,-13,-1,8,-5,-8,-6,2,2,False,8,-13,-2.625,6.674846172652328,6.773108592072033,-21.0
1311,-22,-4,-4,2,-5,-7,-2,-2,False,2,-22,-5.5,7.171371656006362,8.674675786448736,-44.0
1312,21,11,5,2,10,2,1,1,False,21,1,6.625,7.029275516418053,9.334077351297235,53.0
1313,9,-1,-11,-5,3,5,-3,-4,False,9,-11,-0.875,6.334429729659964,5.989574275355469,-7.0
1314,6,3,3,-2,-4,-6,-2,-3,False,6,-6,-0.625,4.138236339311712,3.9210967853395307,-5.0
1315,-1,-3,0,1,7,4,0,2,False,7,-3,1.25,3.1052950170405937,3.1622776601683795,10.0
1316,-8,0,-7,-4,0,-2,0,4,False,4,-8,-2.125,4.0155946010522525,4.315669125408017,-17.0
1317,-14,-3,2,2,-8,-6,-2,-6,False,2,-14,-4.375,5.343554194407635,6.642665127793212,-35.0
1318,12,3,1,-1,-4,5,1,-1,False,12,-4,2.0,4.869731585445518,4.9749371855331,16.0
1319,6,-6,5,1,-7,-3,2,7,False,7,-7,0.625,5.423164600647327,5.111262075065218,5.0
1320,-3,-1,-1,-2,2,-2,-1,-5,False,2,-5,-1.625,1.9955307206712847,2.4748737341529163,-13.0
1321,-39,-24,-9,-1,5,8,0,-4,False,8,-39,-8.0,15.910463762658118,16.896745248715803,-64.0
1322,3,4,3,6,12,2,-1,3,False,12,-1,4.0,3.779644730092272,5.338539126015656,32.0
1323,0,-8,-10,-5,-5,-4,-1,0,False,0,-10,-4.125,3.6815175442433286,5.373546315051169,-33.0
1324,0,8,-1,-2,8,10,2,-2,False,10,-2,2.875,4.9982139667227985,5.488624600025037,23.0
1325,1,6,-2,2,2,6,0,0,False,6,-2,1.875,2.850438562747845,3.2596012026013246,15.0
1326,-3,-5,-3,-3,-8,-5,-1,4,False,4,-8,-3.0,3.505098327538656,4.444097208657794,-24.0
1327,-3,2,-2,-1,-3,-7,-2,-7,False,2,-7,-2.875,2.9970223317724636,4.0155946010522525,-23.0
1328,3,-6,0,2,13,4,-1,-2,False,13,-6,1.625,5.578978401105349,5.465802777268862,13.0
1329,-17,-9,-7,-6,-5,-4,-3,-8,False,-3,-17,-7.375,4.373213921133975,8.4335638967165,-59.0
1330,-3,15,19,8,-2,-3,-4,-22,False,19,-22,1.0,12.895181824453438,12.103718436910205,8.0
1331,1,2,0,-3,0,-2,-3,-3,False,2,-3,-1.0,2.0,2.1213203435596424,-8.0
1332,7,-2,-1,4,18,6,2,3,False,18,-2,4.625,6.232117273791125,7.441438033068608,37.0
1333,-14,-2,1,3,-3,-1,2,7,False,7,-14,-0.875,6.174544517614234,5.841660722773962,-7.0
1334,4,9,4,-4,-33,-22,0,8,False,9,-33,-4.25,15.219817907677383,14.857657958103626,-34.0
1335,1,2,0,2,7,-5,2,10,False,10,-5,2.375,4.50198368975912,4.834769901453429,19.0
1336,-1,-4,-13,-8,-6,-3,0,6,False,6,-13,-3.625,5.680480361981471,6.4323401651343035,-29.0
1337,10,14,4,-1,-9,0,2,11,False,14,-9,3.875,7.548651724456683,8.054501846793507,31.0
1338,5,-10,-8,-5,-5,-6,-2,-11,False,5,-11,-5.25,5.063877678504601,7.0710678118654755,-42.0
1339,4,-7,-5,-3,1,3,2,3,False,4,-7,-0.25,4.166190448976482,3.905124837953327,-2.0
1340,-14,-16,-10,-2,2,7,1,-3,False,7,-16,-4.375,8.158037228927766,8.796306042879591,-35.0
1341,5,0,4,5,-13,18,4,-15,False,18,-15,1.0,10.63686312513502,10.0,8.0
1342,-3,-3,-1,-5,-14,-4,-1,-5,False,-1,-14,-4.5,4.140393356054125,5.937171043518958,-36.0
1343,3,0,8,-4,-5,-2,-2,-1,False,8,-5,-0.375,4.172614801981401,3.9210967853395307,-3.0
1344,11,2,1,2,11,-12,-12,-6,False,11,-12,-0.375,9.054399088682962,8.477912478906585,-3.0
1345,-5,-5,-9,-8,-2,7,0,-7,False,7,-9,-3.625,5.2355242608275905,6.093028803476971,-29.0
1346,2,-6,2,1,-6,1,-13,-2,False,2,-13,-2.625,5.343554194407635,5.645794895318107,-21.0
1347,37,-3,1,2,-1,-13,-5,-8,False,37,-13,1.25,15.257316745932565,14.326548781894402,10.0
1348,9,6,-1,-7,-3,2,-5,-2,False,9,-7,-0.125,5.462534733462636,5.111262075065218,-1.0
1349,-6,3,-10,-8,-1,0,5,-2,False,5,-10,-2.375,5.262739645035518,5.465802777268862,-19.0
1350,-8,3,10,6,11,-1,0,-2,False,11,-8,2.375,6.435115716575289,6.471089552772392,19.0
1351,5,-8,-8,-2,-3,-2,1,9,False,9,-8,-1.0,5.903993805649092,5.612486080160912,-8.0
1352,-15,-9,-8,-4,-2,-9,-2,2,False,2,-15,-5.875,5.383506557731945,7.73789377027108,-47.0
1353,-11,10,3,1,-1,-1,1,2,False,10,-11,0.5,5.80640040940045,5.454356057317857,4.0
1354,-25,2,-1,6,0,-10,-4,-5,False,6,-25,-4.625,9.530964574180606,10.043654713300333,-37.0
1355,10,-6,0,0,0,1,1,-5,False,10,-6,0.125,4.823676724538776,4.513867521316947,1.0
1356,9,15,2,-6,-4,1,2,4,False,15,-6,2.875,6.728139203587953,6.919176251549024,23.0
1357,-9,-12,-4,2,9,18,3,-5,False,18,-12,0.25,9.881440033864353,9.246621004453464,2.0
1358,2,2,-4,-2,-1,-1,-4,0,False,2,-4,-1.0,2.3299294900428698,2.3979157616563596,-8.0
1359,7,5,5,1,5,3,7,6,False,7,1,4.875,2.03100960115899,5.232112384114087,39.0
1360,4,1,1,7,28,21,6,-1,False,28,-1,8.375,10.473606283006278,12.88894875465024,67.0
1361,-12,5,-4,-3,-9,-2,-1,-8,False,5,-12,-4.25,5.338539126015656,6.557438524302,-34.0
1362,-16,-6,-1,-4,-19,-12,-3,-8,False,-1,-19,-8.625,6.4572771793867245,10.529719844326344,-69.0
1431,-5,5,-6,-3,-14,3,2,7,False,7,-14,-1.375,6.94750726108704,6.642665127793212,-11.0
1432,-8,-8,-4,-2,1,6,6,-1,False,6,-8,-1.25,5.4707011825333165,5.267826876426369,-10.0
1433,-3,7,-1,0,-2,2,-2,-11,False,7,-11,-1.25,5.063877678504601,4.898979485566356,-10.0
1434,-15,-2,-1,-2,0,0,3,8,False,8,-15,-1.125,6.512350903146596,6.194755846681933,-9.0
1435,4,11,3,-4,3,2,1,-1,False,11,-4,2.375,4.34042460069124,4.703721930556695,19.0
1436,-1,-8,1,0,3,0,3,7,False,7,-8,0.625,4.307385683749649,4.077376607575022,5.0
1437,-3,-7,-9,-5,0,2,2,-3,False,2,-9,-2.875,4.051013982414068,4.756574397610112,-23.0
1438,2,-12,-1,2,1,-2,-4,-2,False,2,-12,-2.0,4.566962103755937,4.716990566028302,-16.0
1439,11,8,1,1,0,-2,-1,2,False,11,-2,2.5,4.566962103755937,4.949747468305833,20.0
1440,11,8,-5,-7,-9,-4,-3,-4,False,11,-9,-1.625,7.170126518110701,6.90108687092113,-13.0
1441,-12,-17,0,8,9,-3,3,7,False,9,-17,-0.625,9.575825216211319,8.979142498033985,-5.0
1442,10,0,-2,-4,1,-4,-7,-7,False,10,-7,-1.625,5.527528509973641,5.4198708471697,-13.0
1443,-5,0,1,1,0,0,5,5,False,5,-5,0.875,3.181980515339464,3.1024184114977142,7.0
1444,-12,-5,-2,1,-7,-9,0,-1,False,1,-12,-4.375,4.657942525560891,6.174544517614234,-35.0
1445,-4,9,2,1,-5,12,5,4,False,12,-5,3.0,5.855400437691199,6.244997998398398,24.0
1446,4,-3,-5,-4,3,3,4,-3,False,4,-5,-0.125,3.9438016467073274,3.69120576505835,-1.0
1447,-24,-19,-8,-2,5,1,-1,4,False,5,-24,-5.5,10.730463976122241,11.445523142259598,-44.0
1448,-8,-7,-7,-2,-4,1,4,-4,False,4,-8,-3.375,4.2067123233504535,5.18411033833193,-27.0
1449,12,7,4,2,5,4,1,0,False,12,0,4.375,3.814914340921881,5.645794895318107,35.0
1450,-1,-1,2,1,-1,-5,-10,-2,False,2,-10,-2.125,3.7961446607992015,4.138236339311712,-17.0
1451,6,-1,-2,-1,-3,-7,-3,1,False,6,-7,-1.25,3.7321001364608946,3.7080992435478315,-10.0
1452,-15,-4,-6,-4,-2,1,1,4,False,4,-15,-3.125,5.817154434453817,6.274950199005566,-25.0
1453,11,-22,-4,1,3,-2,-7,-8,False,11,-22,-3.5,9.636241116594315,9.669539802906858,-28.0
1454,-16,40,20,4,4,4,-1,2,False,40,-16,7.125,16.48754941506729,16.988967008032006,57.0
1455,23,1,-2,2,1,-2,0,4,False,23,-2,3.375,8.175529690135416,8.359126748650244,27.0
1456,13,-4,-3,1,8,3,-2,-11,False,13,-11,0.625,7.46300399111702,7.0089228844380935,5.0
1457,-9,-4,4,-1,9,6,3,-2,False,9,-9,0.75,5.849297882163783,5.522680508593631,6.0
1458,-1,-4,-5,-2,-6,-2,1,13,False,13,-6,-0.75,5.994044663544927,5.656854249492381,-6.0
1459,-12,-3,-5,-4,-2,1,-3,8,False,8,-12,-2.5,5.631543812693435,5.830951894845301,-20.0
1460,-18,-6,10,4,3,0,-4,-2,False,10,-18,-1.625,8.314144574157945,7.945124291035352,-13.0
1461,6,8,7,0,-4,-4,-1,-5,False,8,-5,0.875,5.356904756613521,5.086747487343951,7.0
1462,10,-2,0,-1,-5,-5,-2,-3,False,10,-5,-1.0,4.780914437337574,4.58257569495584,-8.0
1463,-29,-2,-4,-1,-1,-2,-1,-1,False,-1,-29,-5.125,9.701803955966128,10.422331792837916,-41.0
1464,25,-9,-6,-2,7,1,-4,-9,False,25,-9,0.375,11.287635460348383,10.565273304557719,3.0
1465,13,-5,-2,-4,-2,-1,-1,-5,False,13,-5,-0.875,5.841660722773962,5.533985905294664,-7.0
1466,-5,-4,-5,-8,5,5,2,-3,False,5,-8,-1.625,4.955156044825574,4.911720676097125,-13.0
1467,7,3,-6,2,0,-1,-1,7,False,7,-6,1.375,4.373213921133975,4.315669125408017,11.0
1468,0,4,1,-2,-9,-4,-2,1,False,4,-9,-1.375,3.9256482631170977,3.9210967853395307,-11.0
1469,6,-1,1,-1,-3,-1,1,3,False,6,-3,0.625,2.8252686345094435,2.715695122800054,5.0
1470,-4,0,0,8,-1,1,2,2,False,8,-4,1.0,3.4226138716316967,3.3541019662496847,8.0
1471,-6,-5,-5,-4,-9,-5,-2,-2,False,-2,-9,-4.75,2.2519832529192065,5.196152422706632,-38.0
1472,18,10,11,-4,-5,-1,0,-5,False,18,-5,3.0,8.783100656536798,8.74642784226795,24.0
1473,-5,11,14,3,-4,1,2,5,False,14,-5,3.375,6.610327417868843,7.044501401802686,27.0
1474,-2,-10,-8,-1,8,0,-1,0,False,8,-10,-1.75,5.4707011825333165,5.408326913195984,-14.0
1475,-2,14,4,0,3,-4,-1,-4,False,14,-4,1.25,5.922113522335465,5.678908345800274,10.0
1476,-3,-3,-5,8,-9,7,-1,-6,False,8,-9,-1.5,6.047431568147635,5.852349955359813,-12.0
1477,-1,4,-6,-4,-12,0,-4,4,False,4,-12,-2.375,5.343554194407635,5.533985905294664,-19.0
1478,0,-1,-2,-13,-8,-2,0,-2,False,0,-13,-3.5,4.59813626840888,5.545268253204709,-28.0
1479,7,-2,6,2,-4,-7,-1,0,False,7,-7,0.125,4.764076885549662,4.458138625031752,1.0
1480,4,16,16,1,0,-4,-3,-10,False,16,-10,2.5,9.289010404005062,9.041570660012562,20.0
1481,-9,7,7,5,20,-1,-1,1,False,20,-9,3.625,8.467374361124502,8.710625695092173,29.0
1482,-4,-6,3,2,12,-3,2,-1,False,12,-6,0.625,5.604526232048012,5.2796780204857185,5.0
1483,-4,-19,-6,-9,1,3,1,3,False,3,-19,-3.75,7.573449864965296,8.0156097709407,-30.0
1484,-5,0,8,5,-1,-3,0,7,False,8,-5,1.375,4.749060057376767,4.650268809434569,11.0
1485,-4,-9,0,3,2,2,0,0,False,3,-9,-0.75,3.955105199973465,3.774917217635375,-6.0
1486,-4,-8,-11,0,8,0,-1,-3,False,8,-11,-2.375,5.730557190560593,5.8630196997792865,-19.0
1487,8,-2,-11,-8,-16,-8,-4,-3,False,8,-16,-5.5,7.131419413913534,8.645808232895291,-44.0
1488,-16,-19,-5,2,4,1,0,-5,False,4,-19,-4.75,8.514693182963201,9.273618495495704,-38.0
1489,-2,0,-8,1,5,-1,-2,-6,False,5,-8,-1.625,4.033343171967536,4.107919181288746,-13.0
1490,-8,-7,-17,-19,-9,-5,-3,-5,False,-3,-19,-9.125,5.817154434453817,10.62426468043789,-73.0
1491,7,-8,-3,-1,-8,-4,3,14,False,14,-8,0.0,7.634508123364221,7.1414284285428495,0.0
1492,12,6,-10,-7,-11,-4,0,1,False,12,-11,-1.625,7.981004233267175,7.640353394968063,-13.0
1493,-26,-14,-5,-2,5,3,-1,-7,False,5,-26,-5.875,10.06319318819117,11.096170510586074,-47.0
1494,-3,-6,-3,-1,-8,-1,-4,-3,False,-1,-8,-3.625,2.38671920665766,4.257346591481601,-29.0
1495,-6,5,-4,-7,-2,-4,-1,-4,False,5,-7,-2.875,3.720119045714225,4.513867521316947,-23.0
1496,9,11,-5,-4,-11,-4,1,5,False,11,-11,0.25,7.611082145698562,7.123903424387503,2.0
1497,7,0,1,1,-6,-2,-2,-3,False,7,-6,-0.5,3.8172540616821107,3.605551275463989,-4.0
1498,6,-2,-5,-4,1,0,-2,-4,False,6,-5,-1.25,3.575711717366808,3.5707142142714248,-10.0
1499,5,1,0,2,-1,-1,-1,-3,False,5,-3,0.25,2.434865792722759,2.29128784747792,2.0
1500,1,-3,-2,7,4,2,1,-1,False,7,-3,1.125,3.2705394924123103,3.2596012026013246,9.0
1501,-8,-5,7,4,4,-1,3,9,False,9,-8,1.625,5.853875395228116,5.7118298293979315,13.0
1502,-1,0,-4,-5,-2,-4,-2,-11,False,0,-11,-3.625,3.420004177106889,4.834769901453429,-29.0
1503,-3,1,4,6,7,2,0,4,False,7,-3,2.625,3.2923070504261465,4.046603514059662,21.0
1504,21,12,7,2,5,3,-1,-1,False,21,-1,6.0,7.4258236676383005,9.17877987534291,48.0
1505,-5,3,-6,-14,-11,1,-2,-2,False,3,-14,-4.5,5.781744669956589,7.035623639735144,-36.0
1506,-8,8,6,7,11,8,3,6,False,11,-8,5.125,5.767829500154901,7.441438033068608,41.0
1507,-42,-31,-6,-3,-9,-6,-2,-1,False,-1,-42,-12.5,15.315724879072116,19.013153341831543,-100.0
1508,3,-5,-4,-1,3,-3,-1,10,False,10,-5,0.25,4.920801328471382,4.6097722286464435,2.0
1509,15,6,9,2,3,1,0,-1,False,15,-1,4.375,5.3967582862307255,6.680194607943694,35.0
1510,-1,-2,-4,0,-2,0,-1,-5,False,0,-5,-1.875,1.807721533549109,2.5248762345905194,-15.0
1511,14,11,0,1,-3,-2,-2,-3,False,14,-3,2.0,6.676183683170241,6.557438524302,16.0
1512,4,9,-8,-5,-6,-2,-1,-3,False,9,-8,-1.5,5.5805785670356025,5.431390245600108,-12.0
1513,-3,-5,-8,4,5,2,-2,3,False,5,-8,-0.5,4.69041575982343,4.415880433163923,-4.0
1514,15,12,-1,-9,-9,-2,0,10,False,15,-9,2.0,9.289010404005062,8.916277250063503,16.0
1515,-19,0,0,2,1,-1,-1,-1,False,2,-19,-2.375,6.802048010919736,6.791538853603062,-19.0
1516,9,-2,6,5,6,-3,0,-6,False,9,-6,1.875,5.330170192940773,5.326818938165629,15.0
1517,-15,-12,-3,-1,1,0,-2,-5,False,1,-15,-4.625,5.829420456369815,7.1501748230375455,-37.0
1518,8,4,1,-3,-10,-5,0,8,False,8,-10,0.375,6.300510183423924,5.905505905508858,3.0
1519,12,11,14,10,7,4,4,1,False,14,1,7.875,4.580626906564522,8.965210538520553,63.0
1520,-2,-2,-12,-15,1,2,-2,-5,False,2,-15,-4.375,6.06953752062591,7.167635593415725,-35.0
1521,7,-15,-11,-11,-14,-8,-4,-2,False,7,-15,-7.25,7.32412842206205,9.974968671630002,-58.0
1522,-7,-20,-1,-1,-2,-2,-3,-2,False,-1,-20,-4.75,6.453127702351561,7.681145747868608,-38.0
1523,2,0,1,0,1,2,-2,-13,False,2,-13,-1.125,4.969550137731641,4.782781617427248,-9.0
1524,3,2,4,1,1,-2,-2,1,False,4,-2,1.0,2.138089935299395,2.23606797749979,8.0
1525,-1,-1,-1,0,-1,-2,-2,-6,False,0,-6,-1.75,1.8322507626258084,2.449489742783178,-14.0
1526,1,-4,-12,-3,-1,-3,1,7,False,7,-12,-1.75,5.4182232195751086,5.361902647381804,-14.0
1527,-15,24,9,-2,0,-2,-1,3,False,24,-15,2.0,11.135528725660043,10.606601717798213,16.0
1528,14,13,2,3,2,1,1,0,False,14,0,4.5,5.631543812693435,6.928203230275509,36.0
1529,-1,6,6,1,1,0,0,5,False,6,-1,2.25,2.9154759474226504,3.5355339059327378,18.0
1530,-8,-14,-2,1,-15,-5,0,0,False,1,-15,-5.375,6.368168608679533,8.023403267940607,-43.0
1531,-7,-20,-8,-5,-2,-1,-1,-5,False,-1,-20,-6.125,6.197637798848388,8.4335638967165,-49.0
1532,18,13,-10,-2,3,0,0,-3,False,18,-10,2.375,9.022788609167028,8.76783895837509,19.0
1533,5,11,4,-2,-8,0,3,24,False,24,-8,4.625,9.590732133530935,10.093314619093174,37.0
1534,-1,-1,-9,-4,1,-1,-1,-5,False,1,-9,-2.625,3.2043497223082786,3.984344362627307,-21.0
1535,-1,-12,-6,0,1,-2,-5,-10,False,1,-12,-4.375,4.749060057376767,6.234981956669963,-35.0
1536,1,6,6,1,1,3,0,3,False,6,0,2.625,2.326094212561969,3.409545424246464,21.0
1537,11,-6,-4,0,0,1,-3,-10,False,11,-10,-1.375,6.186101934405635,5.947688626685159,-11.0
1538,-8,13,12,8,4,1,-2,-6,False,13,-8,2.75,7.905694150420948,7.88986691902975,22.0
1539,-1,-8,-4,-2,1,-2,-2,-4,False,1,-8,-2.75,2.659215781283755,3.7080992435478315,-22.0
1540,-7,-11,-7,-4,-2,-1,1,2,False,2,-11,-3.625,4.470139019889969,5.533985905294664,-29.0
1541,-1,3,2,2,-2,-1,-2,-6,False,3,-6,-0.625,2.9246489410818914,2.806243040080456,-5.0
1542,3,3,-2,-3,4,-1,-1,7,False,7,-3,1.25,3.494894235064305,3.5,10.0
1543,-6,-9,-1,-3,-2,-1,-3,-4,False,-1,-9,-3.625,2.7222627143085005,4.430011286667337,-29.0
1544,2,3,3,-1,-5,-2,-2,-8,False,3,-8,-1.25,3.918819064098629,3.872983346207417,-10.0
1545,19,13,7,3,3,-1,0,6,False,19,-1,6.25,6.777062153217383,8.902246907382429,50.0
1546,-10,-3,-2,-2,5,-2,-1,-2,False,5,-10,-2.125,4.051013982414068,4.344536799245692,-17.0
1547,-14,-10,-8,-6,-10,-5,1,1,False,1,-14,-6.375,5.31675249968034,8.085480814398114,-51.0
1548,11,11,-2,-5,-10,-2,-1,-1,False,11,-10,0.125,7.337525857827399,6.86476510887299,1.0
1549,-14,-7,2,2,-3,4,0,3,False,4,-14,-1.625,6.162965427222747,5.989574275355469,-13.0
1550,-2,10,14,32,57,9,-1,-4,False,57,-4,14.375,20.763549792846117,24.16350554038052,115.0
